# (1): time [s] (2): displacement/rotation [m/rad] (3): support force/ moment [N]/[N m]
0.05 0.0 0.0
0.1 1.347937881740838e-11 5.3214454600097755e-05
0.15000000000000002 7.433098424853786e-11 0.00029344696371066915
0.2 2.3265007058924097e-10 0.0009184656642405289
0.25 5.427563192107843e-10 0.002142716062720727
0.3 1.046362232948675e-09 0.004130872519777572
0.35 1.7530929185355247e-09 0.0069209334337187196
0.39999999999999997 2.6207665529092587e-09 0.010346371641928401
0.44999999999999996 3.538037027838506e-09 0.013967610328468811
0.49999999999999994 4.16330168425459e-09 0.016436056250392732
0.5499999999999999 3.798789536513267e-09 0.014997019971353416
0.6 1.6580370502584314e-09 0.006545667907359932
0.65 -2.804083783808116e-09 -0.011070079061478352
0.7000000000000001 -9.661304188930867e-09 -0.03814130013733405
0.7500000000000001 -1.8454201669888075e-08 -0.07285426800788716
0.8000000000000002 -2.8323196490549987e-08 -0.11181549789442032
0.8500000000000002 -3.829381641738402e-08 -0.15117792761900847
0.9000000000000002 -4.761343384200897e-08 -0.18797030247922747
0.9500000000000003 -5.602461622366946e-08 -0.22117631954018813
1.0000000000000002 -6.388757331278822e-08 -0.25221802989712544
1.0500000000000003 -7.211161473036113e-08 -0.2846852440449729
1.1000000000000003 -8.190872531312514e-08 -0.32336268633521564
1.1500000000000004 -9.443721356962541e-08 -0.3728231754693562
1.2000000000000004 -1.1044939957532442e-07 -0.43603675205851955
1.2500000000000004 -1.300701140178872e-07 -0.5134962279044536
1.3000000000000005 -1.529386326267454e-07 -0.603777520667806
1.3500000000000005 -1.783698558958071e-07 -0.7041759659083728
1.4000000000000006 -2.0573608839135816e-07 -0.812213521380103
1.4500000000000006 -2.3453080592026565e-07 -0.9258905097206751
1.5000000000000007 -2.6437991173057834e-07 -1.0437300561502927
1.5500000000000007 -2.950798352676324e-07 -1.164928496332059
1.6000000000000008 -3.266384995328393e-07 -1.2895171090218138
1.6500000000000008 -3.5930085469056396e-07 -1.418462918707663
1.7000000000000008 -3.9355035914402266e-07 -1.5536745426632572
1.7500000000000009 -4.300833166183756e-07 -1.697900877812731
1.800000000000001 -4.6975721352553545e-07 -1.854527144822039
1.850000000000001 -5.135179797472989e-07 -2.0272877251809827
1.900000000000001 -5.623143483978971e-07 -2.2199280670974315
1.950000000000001 -6.170098731789713e-07 -2.4358573439371045
2.000000000000001 -6.783042347357031e-07 -2.6778377841700176
2.0500000000000007 -7.466748825836047e-07 -2.9477542829320096
2.1000000000000005 -8.223477452276105e-07 -3.2464987702097337
2.1500000000000004 -9.053019372894272e-07 -3.5739887938345807
2.2 -9.95308653582227e-07 -3.9293210671349876
2.25 -1.0918256708391346e-06 -4.310354978454505
2.3 -1.194203831511878e-06 -4.714527756514962
2.3499999999999996 -1.3019637621199816e-06 -5.1399469106712905
2.3999999999999995 -1.4150170543366363e-06 -5.5862634188389455
2.4499999999999993 -1.53378053537739e-06 -6.055122848906351
2.499999999999999 -1.6591580885306997e-06 -6.55009358906624
2.549999999999999 -1.792395983955433e-06 -7.076095716696572
2.5999999999999988 -1.9348519778453915e-06 -7.638489438399729
2.6499999999999986 -2.087742148532449e-06 -8.242075638998244
2.6999999999999984 -2.2519344681933764e-06 -8.890280935298467
2.7499999999999982 -2.4278430113038957e-06 -9.584740027807586
2.799999999999998 -2.615446480828574e-06 -10.325368839199745
2.849999999999998 -2.814507886164637e-06 -11.11123176807648
2.8999999999999977 -3.024717123020423e-06 -11.94110457176508
2.9499999999999975 -3.245802518276532e-06 -12.813914727779592
2.9999999999999973 -3.477620627761379e-06 -13.729095941229136
3.049999999999997 -3.7202211566879496e-06 -14.686844440429251
3.099999999999997 -3.973878303632605e-06 -15.688242717970345
3.149999999999997 -4.239083700209747e-06 -16.73523165767051
3.1999999999999966 -4.516503409159079e-06 -17.830440769828613
3.2499999999999964 -4.806925362987293e-06 -18.976980687298976
3.2999999999999963 -5.111205986451827e-06 -20.178232439503688
3.349999999999996 -5.430216482438578e-06 -21.437635397577502
3.399999999999996 -5.764787590643337e-06 -22.758469190383515
3.4499999999999957 -6.115651716171295e-06 -24.143625237381556
3.4999999999999956 -6.4834010389826796e-06 -25.595441371348304
3.5499999999999954 -6.868471130728598e-06 -27.115637160237664
3.599999999999995 -7.271148216156513e-06 -28.70534257406054
3.649999999999995 -7.691593731910938e-06 -30.3651949391438
3.699999999999995 -8.129879225809994e-06 -32.0954767149517
3.7499999999999947 -8.586026002057404e-06 -33.89627200710937
3.7999999999999945 -9.060232471276968e-06 -35.76836410936315
3.8499999999999943 -9.552725595287707e-06 -37.7126490310602
3.899999999999994 -1.0063670831914805e-05 -39.72977997351238
3.949999999999994 -1.0593253525432573e-05 -41.820488646585865
3.999999999999994 -1.1141985995643397e-05 -43.986797607791225
4.049999999999994 -1.1710638184249217e-05 -46.23174646513246
4.099999999999993 -1.2299953020917357e-05 -48.55826818737531
4.149999999999993 -1.291049160117973e-05 -50.968577890892256
4.199999999999993 -1.3542570735147404e-05 -53.463926291869896
4.249999999999993 -1.4196305106600892e-05 -56.04476614372619
4.299999999999993 -1.4871718556443232e-05 -58.71119156657375
4.3499999999999925 -1.5568867052901435e-05 -61.463423514116435
4.399999999999992 -1.6287923096737868e-05 -64.30214299206762
4.449999999999992 -1.702919653299179e-05 -67.22857321961256
4.499999999999992 -1.7792935705142212e-05 -70.24369461750861
4.549999999999992 -1.857937483960825e-05 -73.34843187459458
4.599999999999992 -1.9388876807037994e-05 -76.54421754676862
4.6499999999999915 -2.022187688537144e-05 -79.83277004245963
4.699999999999991 -2.1078495563879026e-05 -83.21456503424118
4.749999999999991 -2.1958700221927935e-05 -86.68947374101671
4.799999999999991 -2.2862522730222174e-05 -90.25762198328249
4.849999999999991 -2.379012796590128e-05 -93.91966066989531
4.899999999999991 -2.474180560435046e-05 -97.67673339343784
4.94999999999999 -2.5717920596181437e-05 -101.53028092117557
4.99999999999999 -2.6718852807600184e-05 -105.4818029047798
5.04999999999999 -2.7744947343924024e-05 -109.532661765434
5.09999999999999 -2.879648638025881e-05 -113.68397148580483
5.14999999999999 -2.9873683920798043e-05 -117.93657692058429
5.1999999999999895 -3.097669792360094e-05 -122.29110166319495
5.249999999999989 -3.210565080021247e-05 -126.74802897504603
5.299999999999989 -3.326064944789052e-05 -131.30778086959623
5.349999999999989 -3.444179870719189e-05 -135.9707712407739
5.399999999999989 -3.564920595752725e-05 -140.73742400550074
5.449999999999989 -3.6882978061585894e-05 -145.60816104076414
5.4999999999999885 -3.814321415229346e-05 -150.58337370766773
5.549999999999988 -3.9429998437121884e-05 -155.66339444398585
5.599999999999988 -4.074339568858034e-05 -160.84847896133505
5.649999999999988 -4.208344872880528e-05 -166.13879631473395
5.699999999999988 -4.345017572986143e-05 -171.53441824461854
5.749999999999988 -4.484356650312682e-05 -177.0353045279215
5.799999999999987 -4.626357834895235e-05 -182.64128659318496
5.849999999999987 -4.7710132378356245e-05 -188.35205299919224
5.899999999999987 -4.918311093792722e-05 -194.16713926889304
5.949999999999987 -5.06823563997781e-05 -200.0859231123317
5.999999999999987 -5.220767148869162e-05 -206.10762571816727
6.0499999999999865 -5.375882195574384e-05 -212.23132230871542
6.099999999999986 -5.5335543598686394e-05 -218.4559698553069
6.149999999999986 -5.6937550982556394e-05 -224.7804415058753
6.199999999999986 -5.8564539513455555e-05 -231.203534771909
6.249999999999986 -6.02161784346435e-05 -237.7239438781358
6.299999999999986 -6.189209765607254e-05 -244.34020776761034
6.349999999999985 -6.359187207034105e-05 -251.05064818357977
6.399999999999985 -6.531500621785796e-05 -257.85330912997983
6.449999999999985 -6.706092147993256e-05 -264.74590631178006
6.499999999999985 -6.882894757146102e-05 -271.7257935494561
6.549999999999985 -7.061831919558576e-05 -278.7899495721145
6.5999999999999845 -7.24281771687889e-05 -285.9349824591834
6.649999999999984 -7.425757285301367e-05 -293.1571471377269
6.699999999999984 -7.610547483863844e-05 -300.4523717657685
6.749999999999984 -7.797077670437612e-05 -307.81628836714646
6.799999999999984 -7.985230447979452e-05 -315.244262292363
6.849999999999984 -8.17488224073171e-05 -322.7314149660516
6.8999999999999835 -8.365903584571791e-05 -330.2726353495159
6.949999999999983 -8.558159065046249e-05 -337.86257749441296
6.999999999999983 -8.75150690087435e-05 -345.49564410013346
7.049999999999983 -8.945798236305055e-05 -353.1659585771751
7.099999999999983 -9.14087625808071e-05 -360.8673301862664
7.149999999999983 -9.336575280489154e-05 -368.59321791767144
7.199999999999982 -9.532719939591822e-05 -376.33669868059087
7.249999999999982 -9.72913632884048e-05 -384.0909069196894
7.299999999999982 -9.925653102428454e-05 -391.8490781736564
7.349999999999982 -0.00010122085776002484 -399.6039292921524
7.399999999999982 -0.00010318227745679108 -407.34730388078736
7.4499999999999815 -0.00010513845771049274 -415.06999397729055
7.499999999999981 -0.0001070868296214536 -422.76185797224184
7.549999999999981 -0.00010902467664687466 -430.41217138453527
7.599999999999981 -0.00011094923730733727 -438.0100323304014
7.649999999999981 -0.00011285777489590186 -445.54463672389795
7.699999999999981 -0.00011474758833102943 -453.00532112252716
7.7499999999999805 -0.00011661596823650797 -460.3813893377343
7.79999999999998 -0.00011846012458470226 -467.66182678190836
7.84999999999998 -0.00012027711844069691 -474.83503100505925
7.89999999999998 -0.00012206382197680373 -481.88865383841994
7.94999999999998 -0.00012381721480756241 -488.81077127813774
7.99999999999998 -0.00012553409858596001 -495.5887567563105
8.04999999999998 -0.0001272109143844473 -502.208560190137
8.09999999999998 -0.00012884372016765567 -508.65461904776794
8.14999999999998 -0.0001304283086628249 -514.9103236821031
8.199999999999982 -0.00013196036692900455 -520.9586472847478
8.249999999999982 -0.00013343561070920624 -526.7826762870512
8.299999999999983 -0.00013484985455874433 -532.3658872156971
8.349999999999984 -0.00013619900772364644 -537.6921304213217
8.399999999999984 -0.0001374790106565126 -542.7453794531709
8.449999999999985 -0.00013868574066986712 -547.509358593463
8.499999999999986 -0.0001398149168107673 -551.9671673173965
8.549999999999986 -0.00014086202685994787 -556.1009920973235
8.599999999999987 -0.0001418222883335094 -559.8919524435873
8.649999999999988 -0.00014269064485564979 -563.3200865846399
8.699999999999989 -0.00014346179177682434 -566.3644526034842
8.74999999999999 -0.0001441302209564279 -569.0033052326169
8.79999999999999 -0.0001446902734784607 -571.2143039671353
8.84999999999999 -0.00014513618967601792 -572.9747105535065
8.899999999999991 -0.00014546214750429324 -574.2615404801127
8.949999999999992 -0.00014566228281343436 -575.0516430112777
8.999999999999993 -0.00014573068844480423 -575.3216976194487
9.049999999999994 -0.00014566139313415715 -575.0481306982738
9.099999999999994 -0.00014544832534157782 -574.2069727689252
9.149999999999995 -0.00014508527031192983 -572.7736889615447
9.199999999999996 -0.00014456582944104873 -570.7230185994032
9.249999999999996 -0.00014388338826544877 -568.0288488273287
9.299999999999997 -0.0001430311068443927 -564.6641766416401
9.349999999999998 -0.00014200192841220662 -560.6011430481161
9.399999999999999 -0.0001407886065030022 -555.8111401461073
9.45 -0.00013938374442038862 -550.2649669487126
9.5 -0.0001377798360410799 -543.9329904689649
9.55 -0.00013596929725167748 -536.7852698272733
9.600000000000001 -0.0001339444815499361 -528.7916178427525
9.650000000000002 -0.00013169767965848114 -519.9215995082407
9.700000000000003 -0.00012922110722929408 -510.14448344955224
9.750000000000004 -0.0001265068850664626 -499.42916384802595
9.800000000000004 -0.0001235470166826371 -487.7440718369661
9.850000000000005 -0.00012033337198936542 -475.0571111136655
9.900000000000006 -0.0001168576877106452 -461.33565957204377
9.950000000000006 -0.00011311159335672891 -446.5466718431205
10.000000000000007 -0.00010908666118943325 -430.65687655014955
10.050000000000008 -0.00010477260211618235 -413.62565398378297
10.100000000000009 -0.00010015839641642541 -395.4095000310419
10.15000000000001 -9.52352643224524e-05 -375.9737535583138
10.20000000000001 -8.999869405716252e-05 -355.3006027835463
10.25000000000001 -8.444800034364451e-05 -333.38734234193174
10.300000000000011 -7.85834504008435e-05 -310.23502717158084
10.350000000000012 -7.240274341806467e-05 -285.8345740359498
10.400000000000013 -6.589930273501094e-05 -260.1600193208736
10.450000000000014 -5.9063101154089675e-05 -233.17177723695573
10.500000000000014 -5.188340741658867e-05 -204.82748247291028
10.550000000000015 -4.435199987937245e-05 -175.0946772826276
10.600000000000016 -3.6465397656256946e-05 -143.95961967826682
10.650000000000016 -2.822533156782996e-05 -111.42914266562437
10.700000000000017 -1.963737057313486e-05 -77.52523161377377
10.750000000000018 -1.0707919379276827e-05 -42.273171292888236
10.800000000000018 -1.4400550522979847e-06 -5.6851094727884615
10.85000000000002 8.16981415786659e-06 32.25313350742489
10.90000000000002 1.8132222759635907e-05 71.58314622001406
10.95000000000002 2.8461085031056707e-05 112.35986003291828
11.000000000000021 3.9168650720462474e-05 154.6316350141633
11.050000000000022 5.02631443608848e-05 198.43094031871132
11.100000000000023 6.174495886135606e-05 243.75932708924844
11.150000000000023 7.360757122493617e-05 290.5910435660513
11.200000000000024 8.584465648209614e-05 338.90111977028005
11.250000000000025 9.845513200433503e-05 388.68528165592744
11.300000000000026 0.00011144329119615264 439.96047890457237
11.350000000000026 0.000124816034594042 492.7539537423513
11.400000000000027 0.00013857990445299885 547.091533956744
11.450000000000028 0.0001527393906140548 602.9909447296726
11.500000000000028 0.0001672966824834304 660.4608294904455
11.55000000000003 0.00018225239749476238 719.5036257693574
11.60000000000003 0.00019760685570946695 780.1205971182338
11.65000000000003 0.0002133610740809979 842.3157583083877
11.700000000000031 0.00022951736391870774 906.0982340234023
11.750000000000032 0.00024607931886404906 971.4822113910759
11.800000000000033 0.0002630509073268191 1038.483357065329
11.850000000000033 0.0002804351986270247 1107.1137882358605
11.900000000000034 0.000298234152140344 1177.3812402077967
11.950000000000035 0.0003164489582350577 1249.290412366747
12.000000000000036 0.00033508035422945905 1322.84421552866
12.050000000000036 0.0003541292633377483 1398.046294397109
12.100000000000037 0.0003735974525293099 1474.9036246876196
12.150000000000038 0.0003934876622297221 1553.427025166731
12.200000000000038 0.00041380326225416345 1633.62979933153
12.250000000000039 0.00043454775163058847 1715.5257607906963
12.30000000000004 0.00045572434567055323 1799.1276030854638
12.35000000000004 0.00047733572798793573 1884.445920698769
12.400000000000041 0.0004993840270277203 1971.4891163946058
12.450000000000042 0.0005218709924157986 2060.2640974191345
12.500000000000043 0.0005447982015342692 2150.7770910272757
12.550000000000043 0.000568166981346002 2243.0333358584626
12.600000000000044 0.0005919782981568027 2337.036646735107
12.650000000000045 0.0006162329038025993 2432.7899917864834
12.700000000000045 0.0006409315088370182 2530.2961761658707
12.750000000000046 0.0006660746091750414 2629.5571576671446
12.800000000000047 0.0006916621139296648 2730.572577482795
12.850000000000048 0.0007176930946936133 2833.338770407811
12.900000000000048 0.0007441657889899032 2937.848778461953
12.950000000000049 0.0007710777005603655 3044.0927468129776
13.00000000000005 0.0007984256309742189 3152.058048562279
13.05000000000005 0.0008262056167759954 3261.7290366148445
13.100000000000051 0.0008544128278024905 3373.0866422506656
13.150000000000052 0.0008830414753089558 3486.1080124214836
13.200000000000053 0.000912084744809117 3600.7662446138097
13.250000000000053 0.0009415347557002693 3717.030227455188
13.300000000000054 0.0009713825504806511 3834.8645981460954
13.350000000000055 0.001001618101496009 3954.2297690943105
13.400000000000055 0.0010322303092313596 4075.081921171062
13.450000000000056 0.0010632069791338343 4197.3729122112845
13.500000000000057 0.001094534787611255 4321.050142781379
13.550000000000058 0.0011261992536402456 4446.056444092526
13.600000000000058 0.0011581847205938127 4572.330006258857
13.650000000000059 0.001190474342807478 4699.804325262658
13.70000000000006 0.0012230500717795455 4828.408148475222
13.75000000000006 0.0012558926441555661 4958.06542722141
13.800000000000061 0.001288981581274548 5088.695314988159
13.850000000000062 0.0013222952121784667 5220.2122582623915
13.900000000000063 0.0013558107504409464 5352.5262998384915
13.950000000000063 0.0013895045328537845 5485.544021114929
14.000000000000064 0.0014233521527380016 5619.169068385197
14.050000000000065 0.0014573282718396783 5753.301410232334
14.100000000000065 0.0014914063752260922 5887.8363698976655
14.150000000000066 0.00152555866862754 6022.664220002555
14.200000000000067 0.0015597561166348388 6157.670333346099
14.250000000000068 0.0015939685533865342 6292.735619880709
14.300000000000068 0.0016281648211241592 6427.737073706347
14.350000000000069 0.001662312856097811 6562.548112212149
14.40000000000007 0.0016963797032600548 6697.038634085638
14.45000000000007 0.0017303315109065947 6831.07499815493
14.500000000000071 0.0017641335431276522 6964.520072544815
14.550000000000072 0.0017977502221676502 7097.2334019060845
14.600000000000072 0.0018311451922689986 7229.071459460691
14.650000000000073 0.001864281386159525 7359.887909483606
14.700000000000074 0.0018971210789994774 7489.533820277053
14.750000000000075 0.0019296259275399668 7617.857818761836
14.800000000000075 0.0019617570042287764 7744.706225121681
14.850000000000076 0.0019934748362268385 7869.923206834116
14.900000000000077 0.002024739453898976 7993.350970104238
14.950000000000077 0.002055510459996552 8114.830032986872
15.000000000000078 0.0020857471259643945 8234.199605591066
15.050000000000079 0.002115408493778621 8351.297992119713
15.10000000000008 0.0021444534554938763 8465.962904909456
15.15000000000008 0.0021728408049343016 8578.03166849845
15.200000000000081 0.0022005292779845712 8687.341378689003
15.250000000000082 0.0022274776023362 8793.72909893813
15.300000000000082 0.0022536445670528074 8897.032134990202
15.350000000000083 0.002278989109271307 8997.088377159524
15.400000000000084 0.0023034704096712233 9093.736677228084
15.450000000000085 0.002327047988967311 9186.817229383163
15.500000000000085 0.002349681793676948 9276.171908813416
15.550000000000086 0.0023713322504331155 9361.644486127923
15.600000000000087 0.0023919602822468577 9443.08069155781
15.650000000000087 0.002411527316695416 9520.328247281714
15.700000000000088 0.002429995325194636 9593.237022467016
15.750000000000089 0.0024473269033055945 9661.659350307713
15.80000000000009 0.0024634853715190855 9725.450425905607
15.85000000000009 0.0024784348700437825 9784.468680478978
15.900000000000091 0.002492140434222742 9838.576079095006
15.950000000000092 0.002504568051040459 9887.638343750683
16.000000000000092 0.00251568778795854 9931.537305520942
16.050000000000093 0.002525469519601848 9970.154034191768
16.100000000000094 0.002533887768387833 10003.387948298818
16.150000000000095 0.0025409179883084257 10031.142144086381
16.200000000000095 0.002546533880004522 10053.312795846316
16.250000000000096 0.0025507070687064426 10069.787884477935
16.300000000000097 0.0025534083193276837 10080.451994485875
16.350000000000097 0.00255460919506294 10085.192861862613
16.400000000000098 0.0025542834574112847 10083.906901158462
16.4500000000001 0.0025524078507691505 10076.502302930494
16.5000000000001 0.0025489622170778788 10062.899486352926
16.5500000000001 0.0025439291086370094 10043.029570665261
16.6000000000001 0.0025372931694999227 10016.831933020161
16.6500000000001 0.0025290405450368383 9984.251877531602
