# (1): time [s] (2): displacement/rotation [m/rad] (3): support force/ moment [N]/[N m]
0.05 0.0 0.0
0.1 1.1472411069425842e-07 4.076213716148817
0.15000000000000002 5.747107393599299e-07 20.4198035131443
0.2 1.6890100622479781e-06 60.01150011784868
0.25 3.806953330163419e-06 135.26324403164162
0.3 7.280176604880312e-06 258.6688670168442
0.35 1.2425186518254521e-05 441.4740319617156
0.39999999999999997 1.948833776079038e-05 692.4318628817256
0.44999999999999996 2.861605652243096e-05 1016.7449666241832
0.49999999999999994 3.984616090103744e-05 1415.7570419834178
0.5499999999999999 5.300084270104436e-05 1883.15046138122
0.6 6.76698355386617e-05 2404.3482239521272
0.65 8.330700474140926e-05 2959.9458502945854
0.7000000000000001 9.937151756081312e-05 3530.7272414200665
0.7500000000000001 0.00011544657282394559 4101.883211642027
0.8000000000000002 0.0001312985956900639 4665.114712366225
0.8500000000000002 0.00014686943305422152 5218.355530286797
0.9000000000000002 0.00016221728784373117 5763.673648926967
0.9500000000000003 0.0001774344096300556 6304.346748682159
1.0000000000000002 0.00019257104685510432 6842.160185628682
1.0500000000000003 0.0002075881163104275 7375.725310864482
1.1000000000000003 0.00022234848883484915 7900.169846327984
1.1500000000000004 0.0002366428610159754 8408.057121250735
1.2000000000000004 0.0002502355920413513 8891.01468187388
1.2500000000000004 0.0002629119871945069 9341.414301290597
1.3000000000000005 0.00027451407525351035 9753.643171018877
1.3500000000000005 0.0002849420489130539 10124.155080027705
1.4000000000000006 0.0002941325769133266 10450.69983218708
1.4500000000000006 0.00030204949120085314 10731.99235572987
1.5000000000000007 0.00030867931783499456 10967.553913786283
1.5500000000000007 0.00031402571840674447 11157.51460479283
1.6000000000000008 0.00031810353435114333 11302.401753482847
1.6500000000000008 0.0003209332293782242 11402.942447257712
1.7000000000000008 0.0003225364397035673 11459.905433316073
1.7500000000000009 0.000322933140485842 11474.000440548029
1.800000000000001 0.0003221406694936557 11445.843489856044
1.850000000000001 0.00032017457194623164 11375.986911830745
1.900000000000001 0.00031705097504791175 11265.003715329152
1.950000000000001 0.0003127900030039456 11113.608924952183
2.000000000000001 0.00030741962913151096 10922.796448767429
2.0500000000000007 0.00030097934202802547 10693.969339380406
2.1000000000000005 0.0002935230728910905 10429.043803297845
2.1500000000000004 0.00028512097284244737 10130.512350271312
2.2 0.00027585981539137165 9801.458093053367
2.25 0.0002658494246451292 9445.783145416708
2.3 0.00025521617365195746 9067.977614536363
2.3499999999999996 0.00024409390293052985 8672.79693111205
2.3999999999999995 0.00023261642755070846 8264.995621632563
2.4499999999999993 0.00022091267237297997 7849.154460631588
2.499999999999999 0.00020910442418368188 7429.600602757882
2.549999999999999 0.000197306242043203 7010.404397395196
2.5999999999999988 0.00018562671412798395 6595.424044982304
2.6499999999999986 0.00017417018191273677 6188.366858200132
2.6999999999999984 0.00016303824083826527 5792.842581563555
2.7499999999999982 0.0001523306287986377 5412.394959882278
2.799999999999998 0.00014214539550306635 5050.507755785944
2.849999999999998 0.00013257588268143482 4710.497454687584
2.8999999999999977 0.0001237111685846652 4395.529058137629
2.9499999999999975 0.00011563626356836589 4108.623033023543
2.9999999999999973 0.00010843161079417817 3852.6375712011454
3.049999999999997 0.00010217192044956088 3630.2271686522568
3.099999999999997 9.692469473410059e-05 3443.7902173989187
3.149999999999997 9.274864263995984e-05 3295.4126817398824
3.1999999999999966 8.969215024155972e-05 3186.813746762157
3.2499999999999964 8.779199999290584e-05 3119.3003142375132
3.2999999999999963 8.70724728846998e-05 3093.7351017476412
3.349999999999996 8.754491804211447e-05 3110.5213502452566
3.399999999999996 8.920781709620157e-05 3169.605111207284
3.4499999999999957 9.204730869208774e-05 3270.493882713096
3.4999999999999956 9.603808372409664e-05 3412.2884176639172
3.5499999999999954 0.00010114452030777293 3593.723049992404
3.599999999999995 0.00010732190954972072 3813.209246970856
3.649999999999995 0.00011451763157313539 4068.877394075568
3.699999999999995 0.00012267217146251977 4358.6128920876245
3.7499999999999947 0.00013171991125809275 4680.084297110299
3.7999999999999945 0.00014158968825470078 5030.763157250874
3.8499999999999943 0.00015221176038738706 5408.171496780891
3.899999999999994 0.00016351176300320115 5809.667096758587
3.949999999999994 0.0001754053640856056 6232.2535920743085
3.999999999999994 0.00018779784020412797 6672.565404697455
4.049999999999994 0.000200587094065008 7126.9749589886205
4.099999999999993 0.00021366756632348215 7591.731670642651
4.149999999999993 0.00022693207124507175 8063.027168791263
4.199999999999993 0.00024027450345596112 8537.091468402652
4.249999999999993 0.00025359121296006024 9010.241825429517
4.299999999999993 0.00026678153076107404 9478.901412463869
4.3499999999999925 0.0002797479158996711 9939.604543052292
4.399999999999992 0.0002923960868245319 10389.001339384942
4.449999999999992 0.00030463366393202043 10823.809500948404
4.499999999999992 0.00031637163859748075 11240.866500053573
4.549999999999992 0.00032752758453983736 11637.243683469165
4.599999999999992 0.00033802625449419563 12010.267472542793
4.6499999999999915 0.00034779610546701375 12357.395903516319
4.699999999999991 0.00035677191650451803 12676.311638345074
4.749999999999991 0.0003648976723156617 12965.024421482101
4.799999999999991 0.0003721275251773027 13221.905256923033
4.849999999999991 0.00037842577334910627 13445.68564127514
4.899999999999991 0.00038376625192029415 13635.43592019157
4.94999999999999 0.0003881314826094686 13790.535080269497
4.99999999999999 0.0003915118716422725 13910.642249181497
5.04999999999999 0.00039390516125645275 13995.677207334598
5.09999999999999 0.00039531623748952245 14045.813558455236
5.14999999999999 0.0003957572817511493 14061.484115043497
5.1999999999999895 0.00039524815300674606 14043.394477576156
5.249999999999989 0.0003938168254326513 13992.538584647285
5.299999999999989 0.00039149969583221933 13910.209635638941
5.349999999999989 0.0003883416137525482 13798.001160785856
5.399999999999989 0.00038439555981201927 13657.795591967688
5.449999999999989 0.0003797219813750222 13491.740658849447
5.4999999999999885 0.00037438786615260407 13302.216473379101
5.549999999999988 0.00036846567650725923 13091.797665023088
5.599999999999988 0.00036203227369045645 12863.215158306179
5.649999999999988 0.000355167935943133 12619.321285356607
5.699999999999988 0.0003479555273251308 12363.060253937327
5.749999999999988 0.000340479820079027 12097.444070642681
5.799999999999987 0.0003328269286177236 11825.53243015154
5.849999999999987 0.0003250837888207798 11550.414214326138
5.899999999999987 0.00031733761520541916 11275.188205185383
5.949999999999987 0.000309675286965823 11002.941270527388
5.999999999999987 0.0003021826439262554 10736.723348738598
6.0499999999999865 0.0002949437062909552 10479.519726058146
6.099999999999986 0.00028803985876280297 10234.222047844263
6.149999999999986 0.0002815490402255323 10003.599527516635
6.199999999999986 0.0002755449662917063 9790.271323238316
6.249999999999986 0.00027009641669551083 9596.681218571324
6.299999999999986 0.00026526661694946515 9425.075652383495
6.349999999999985 0.0002611127280678456 9277.48558842789
6.399999999999985 0.00025768544101814356 9155.71210596956
6.449999999999985 0.0002550286609770139 9061.315181217586
6.499999999999985 0.0002531792624498687 8995.604986583216
6.549999999999985 0.00025216689904569527 8959.63513186962
6.5999999999999845 0.0002520138573419874 8954.197472008744
6.649999999999984 0.00025273495050756324 8979.81832741877
6.699999999999984 0.0002543374541076024 9036.75620312012
6.749999999999984 0.0002568210917864807 9125.001280038327
6.799999999999984 0.00026017808053920195 9244.27702352408
6.849999999999984 0.00026439324394584364 9394.044206638288
6.8999999999999835 0.0002694441980821385 9573.507515662082
6.949999999999983 0.0002753016102481783 9781.62474287667
6.999999999999983 0.00028192952649179514 10017.118423657657
7.049999999999983 0.00028928576102620605 10278.48967270822
7.099999999999983 0.00029732233938002607 10564.033929434241
7.149999999999983 0.00030598598728954834 10871.858328568556
7.199999999999982 0.0003152186584243315 11199.900450564957
7.249999999999982 0.0003249580953898583 11545.9482543457
7.299999999999982 0.00033514625745493745 11907.93951930916
7.349999999999982 0.000345719479570516 12283.612189601354
7.399999999999982 0.0003566029472929777 12670.308064959154
7.4499999999999815 0.0003677140651141749 13065.092479415951
7.499999999999981 0.000378968992543591 13464.986532064655
7.549999999999981 0.0003902878751416203 13867.15294868238
7.599999999999981 0.0004015967211463123 14268.96275935932
7.649999999999981 0.00041282627995042686 14667.95545014269
7.699999999999981 0.0004239096775105865 15061.75494776228
7.7499999999999805 0.0004347806248103745 15448.005965292672
7.79999999999998 0.0004453731532726641 15824.364601200952
7.84999999999998 0.00045562277376666124 16188.539519534332
7.89999999999998 0.00046546363678425906 16538.191049350735
7.94999999999998 0.0004748343524894367 16871.13797442538
7.99999999999998 0.0004836831110360816 17185.539461091492
8.04999999999998 0.0004919689254457366 17479.9392184024
8.09999999999998 0.0004996604430557596 17753.22326820018
8.14999999999998 0.0005067335020193903 18004.533126155995
8.199999999999982 0.0005131685701025417 18233.174800745204
8.249999999999982 0.0005189489549240266 18438.555202052023
8.299999999999983 0.000524060250776646 18620.162487004243
8.349999999999984 0.000528491017127782 18777.590166889975
8.399999999999984 0.0005322342982659941 18910.591101276343
8.449999999999985 0.0005352893930980357 19019.140379916567
8.499999999999986 0.0005376632977748027 19103.48658008068
8.549999999999986 0.0005393714289322674 19164.177463722346
8.599999999999987 0.0005404375035373156 19202.05570833229
8.649999999999988 0.000540892705358629 19218.229291168755
8.699999999999989 0.0005407744342992441 19214.02705232314
8.74999999999999 0.0005401249814865854 19190.95161990592
8.79999999999999 0.0005389904113175837 19150.639688465955
8.84999999999999 0.0005374198030531222 19094.835072404414
8.899999999999991 0.0005354648614347513 19025.37487096245
8.949999999999992 0.0005331797931120949 18944.185077615766
8.999999999999993 0.0005306212890593307 18853.279955322047
9.049999999999994 0.0005278484557571416 18754.759591376063
9.099999999999994 0.0005249225848185403 18650.801712082564
9.149999999999995 0.0005219067179161793 18543.646224373053
9.199999999999996 0.0005188650277949585 18435.57322282731
9.249999999999996 0.0005158620811450316 18328.876799126832
9.299999999999997 0.0005129620581888304 18225.83731353241
9.349999999999998 0.0005102280042005977 18128.694800942132
9.399999999999999 0.0005077211627216238 18039.62527964476
9.45 0.0005055004097282935 17960.72064698462
9.5 0.0005036217802972471 17893.971861502203
9.55 0.000502138062801616 17841.254524492728
9.600000000000001 0.0005010984349410325 17804.315947942814
9.650000000000002 0.0005005481241499039 17784.76308864089
9.700000000000003 0.0005005280855093501 17784.051104202885
9.750000000000004 0.0005010746983364598 17803.47257271377
9.800000000000004 0.0005022194878497356 17844.147603340538
9.850000000000005 0.0005039888794730945 17907.015106611892
9.900000000000006 0.0005064039908969899 17992.825406230128
9.950000000000006 0.0005094804623287109 18102.13420776655
10.000000000000007 0.0005132283241170741 18235.297895290525
10.050000000000008 0.0005174947380910976 18386.886040576137
10.100000000000009 0.0005219228343601968 18544.21885090955
10.15000000000001 0.0005260300531993958 18690.150701383292
10.20000000000001 0.0005293290285599104 18807.36519563729
10.25000000000001 0.0005314364794848009 18882.24414056145
10.300000000000011 0.0005321407565745763 18907.267511114853
10.350000000000012 0.000531419107558741 18881.626906025027
10.400000000000013 0.0005294111379387545 18810.282589149807
10.450000000000014 0.0005263636311569241 18702.002918303115
10.500000000000014 0.0005225649434124048 18567.033355289095
10.550000000000015 0.0005182856307332556 18414.986911582728
10.600000000000016 0.0005137367515256247 18253.36261389116
10.650000000000016 0.0005090505735970582 18086.860013582118
10.700000000000017 0.000504282386517376 17917.44358090946
10.750000000000018 0.0004994279374850448 17744.962211385766
10.800000000000018 0.0004944066372887188 17566.552523925107
10.85000000000002 0.0004891307448008688 17379.097025741175
10.90000000000002 0.00048356843882106795 17181.46509125876
10.95000000000002 0.00047776518044349473 16975.271979332523
11.000000000000021 0.0004718304109380663 16764.406201303704
11.050000000000022 0.00046590538702849955 16553.88668990779
11.100000000000023 0.0004601434447813791 16349.161563888183
11.150000000000023 0.00045465874360125336 16154.286972626478
11.200000000000024 0.00044950793578594995 15971.275804887377
11.250000000000025 0.00044470821538536345 15800.738975164719
11.300000000000026 0.000440268257444413 15642.984712799958
11.350000000000026 0.00043621078221239216 15498.820281333807
11.400000000000027 0.0004325784265055803 15369.760591400825
11.450000000000028 0.00042942613276535476 15257.757779581423
11.500000000000028 0.0004268084826848716 15164.751164863968
11.55000000000003 0.0004247695458442193 15092.306564806206
11.60000000000003 0.0004233388939829925 15041.47468034464
11.65000000000003 0.0004225331876097418 15012.847468941925
11.700000000000031 0.00042236018279269476 15006.700508168471
11.750000000000032 0.00042282260341895586 15023.130579301634
11.800000000000033 0.00042392035609138597 15062.13436388728
11.850000000000033 0.0004256508343871009 15123.619254219439
11.900000000000034 0.0004280078122824639 15207.36403609308
11.950000000000035 0.00043097975676770005 15312.95893502969
12.000000000000036 0.00043454828372742826 15439.750752823391
12.050000000000036 0.00043868778116787805 15586.829480587012
12.100000000000037 0.00044336625650133243 15753.058403256231
12.150000000000038 0.0004485466965007833 15937.122419561605
12.200000000000038 0.00045418831831610916 16137.572491353763
12.250000000000039 0.0004602474842462418 16352.858145985248
12.30000000000004 0.0004666780204314296 16581.338799630146
12.35000000000004 0.00047343111274665393 16821.28005831723
12.400000000000041 0.0004804551754102528 17070.84904951869
12.450000000000042 0.0004876959627457627 17328.118393112727
12.500000000000043 0.00049509698953057 17591.081136613222
12.550000000000043 0.0005026001272800393 17857.671941488134
12.600000000000044 0.0005101463265672949 18125.792747597312
12.650000000000045 0.0005176763410865419 18393.338499579255
12.700000000000045 0.0005251313348116336 18658.21871954458
12.750000000000046 0.0005324534500292897 18918.377689623445
12.800000000000047 0.0005395862583600671 19171.810477000286
12.850000000000048 0.0005464751349893293 19416.57623055571
12.900000000000048 0.0005530676643309283 19650.812594330673
12.950000000000049 0.0005593140545699855 19872.750436470225
13.00000000000005 0.0005651675138734803 20080.72721620236
13.05000000000005 0.0005705845935956377 20273.19917812304
13.100000000000051 0.0005755255234013433 20448.753259324156
13.150000000000052 0.0005799545410254442 20606.11880593134
13.200000000000053 0.0005838401966245339 20744.178386898155
13.250000000000053 0.0005871556131656313 20861.97704576581
13.300000000000054 0.0005898786990812629 20958.729856420672
13.350000000000055 0.0005919923148528009 21033.82784189621
13.400000000000055 0.0005934843918060457 21086.842195248446
13.450000000000056 0.0005943479984872554 21117.526637934483
13.500000000000057 0.0005945813504898879 21125.817768962348
13.550000000000058 0.0005941877674449041 21111.83353673167
13.600000000000058 0.0005931755901945887 21075.870296171845
13.650000000000059 0.00059155807005203 21018.398874067592
13.70000000000006 0.0005893532320012114 20940.059708479417
13.75000000000006 0.0005865837060721226 20841.65685740422
13.800000000000061 0.0005832765214022354 20724.150681660936
13.850000000000062 0.0005794628611950872 20588.649138427914
13.900000000000063 0.0005751777849624586 20436.397912347515
13.950000000000063 0.0005704599418273594 20268.77022901615
14.000000000000064 0.0005653512037096631 20087.25382185861
14.050000000000065 0.0005598961650013355 19893.43315530084
14.100000000000065 0.0005541416120109848 19688.970573829323
14.150000000000066 0.0005481360748670604 19475.590380853628
14.200000000000067 0.0005419294770521089 19255.066386456776
14.250000000000068 0.0005355728196960983 19029.210690155218
14.300000000000068 0.0005291178526895719 18799.86199535982
14.350000000000069 0.0005226166859388973 18568.871797050993
14.40000000000007 0.0005161213396848035 18338.08840433738
14.45000000000007 0.0005096832743606188 18109.340236048312
14.500000000000071 0.0005033529314194397 17884.419506058715
14.550000000000072 0.0004971792983929621 17665.066769578912
14.600000000000072 0.0004912094983276783 17452.9563355863
14.650000000000073 0.0004854884004000468 17249.682431758083
14.700000000000074 0.00048005825356342157 17056.746187735742
14.750000000000075 0.0004749583517088736 16875.543738096167
14.800000000000075 0.0004702247400748859 16707.355790919097
14.850000000000076 0.0004658899647548437 16553.33872764398
14.900000000000077 0.00046198285759818105 16414.516960483845
14.950000000000077 0.0004585283483610583 16291.776258030728
15.000000000000078 0.0004555472981991028 16185.857829156832
15.050000000000079 0.0004530563579948683 16097.353289307606
15.10000000000008 0.0004510678605929519 16026.700831553375
15.15000000000008 0.00044958975212507985 15974.182786530102
15.200000000000081 0.0004486255614009573 15939.92453487866
15.250000000000082 0.00044817440405182235 15923.894654467678
15.300000000000082 0.00044823101974857555 15925.906242775125
15.350000000000083 0.00044878584253875615 15945.619416001573
15.400000000000084 0.00044982510336370274 15982.544951563954
15.450000000000085 0.0004513309628200168 16036.049005186807
15.500000000000085 0.0004532816786919608 16105.359063424856
15.550000000000086 0.000455651824916919 16189.571723631918
15.600000000000087 0.00045841257190208374 16287.662653774192
15.650000000000087 0.0004615320080811989 16398.498017526515
15.700000000000088 0.00046497546695834944 16520.846094326538
15.750000000000089 0.0004687058395794962 16653.388381668283
15.80000000000009 0.00047268387828239776 16794.730387511783
15.85000000000009 0.00047686851077837346 16943.412789788985
15.900000000000091 0.0004812171795977781 17097.92349709694
15.950000000000092 0.00048568621004369184 17256.710722304273
16.000000000000092 0.0004902317616795394 17418.216789454218
16.050000000000093 0.0004948091810131098 17580.855134255075
16.100000000000094 0.0004993744437654685 17743.061548725185
16.150000000000095 0.0005038835257648795 17903.271828691722
16.200000000000095 0.0005082922236573763 18059.915403534014
16.250000000000096 0.0005125565395946795 18211.42900436681
16.300000000000097 0.0005166335148696286 18356.286283587182
16.350000000000097 0.000520482193527843 18493.032052551753
16.400000000000098 0.0005240644698475091 18620.312393021533
16.4500000000001 0.0005273456636268245 18736.895097456105
16.5000000000001 0.0005302947733684771 18841.678664803938
16.5500000000001 0.0005328844574595809 18933.6916318147
16.6000000000001 0.000535090856584414 19012.086263261546
16.6500000000001 0.0005368933858465004 19076.131165918992
16.700000000000102 0.000538274598694245 19125.206453762385
16.750000000000103 0.0005392177117888932 19158.715805101176
16.800000000000104 0.0005397082877694686 19176.146252186216
16.850000000000104 0.00053973883910855 19177.231758856582
16.900000000000105 0.0005393087999652881 19161.95222046106
16.950000000000106 0.00053842193322647 19130.441334534033
