# Results for "element" with Id # 956533 at position: x: -360; y: 0; z: 248.275862069
# time VELOCITY_X
0.02 0.0
0.04 0.0037386503457898074
0.06 0.013789554101927963
0.08 0.031812413642094764
0.1 0.05858501672304446
0.12000000000000001 0.09401823000901915
0.14 0.13721754252455276
0.16 0.18660505093689791
0.18 0.24009588036640028
0.19999999999999998 0.2953136765375896
0.21999999999999997 0.34982498667186274
0.23999999999999996 0.4013703350159389
0.25999999999999995 0.44807023663452566
0.27999999999999997 0.4885871160644477
0.3 0.5222288713431111
0.32 0.5489861004588669
0.34 0.5695020326606488
0.36000000000000004 0.584981099733098
0.38000000000000006 0.5970480162889311
0.4000000000000001 0.6075735465880604
0.4200000000000001 0.6184854707402178
0.4400000000000001 0.6315835468595041
0.46000000000000013 0.6483756940724198
0.48000000000000015 0.6699495788437088
0.5000000000000001 0.6968897099571769
0.5200000000000001 0.7292454911406165
0.5400000000000001 0.7665508562793677
0.5600000000000002 0.8078914782060986
0.5800000000000002 0.8520114090729601
0.6000000000000002 0.8974480561059037
0.6200000000000002 0.9426809038785867
0.6400000000000002 0.9862795853849428
0.6600000000000003 1.0270373399159711
0.6800000000000003 1.064077322949219
0.7000000000000003 1.0969223700401296
0.7200000000000003 1.1255228178137688
0.7400000000000003 1.1502414246155999
0.7600000000000003 1.1717988051118546
0.7800000000000004 1.1911866116867675
0.8000000000000004 1.2095585534384774
0.8200000000000004 1.2281110049704396
0.8400000000000004 1.2479653250664395
0.8600000000000004 1.2700631622639273
0.8800000000000004 1.295084151843706
0.9000000000000005 1.3233927794076503
0.9200000000000005 1.35501809054645
0.9400000000000005 1.3896666646810414
0.9600000000000005 1.4267661299140475
0.9800000000000005 1.4655337252248495
1.0000000000000004 1.5050622493723806
1.0200000000000005 1.5444143417663851
1.0400000000000005 1.582715552644697
1.0600000000000005 1.6192371084642412
1.0800000000000005 1.6534606295410184
1.1000000000000005 1.6851191478401641
1.1200000000000006 1.7142113821510387
1.1400000000000006 1.7409890576286242
1.1600000000000006 1.7659197901194028
1.1800000000000006 1.7896304472142899
1.2000000000000006 1.8128375422682013
1.2200000000000006 1.8362720791344824
1.2400000000000007 1.860606716716633
1.2600000000000007 1.8863922959488457
1.2800000000000007 1.9140094977768658
1.3000000000000007 1.943639636046988
1.3200000000000007 1.9752565260218813
1.3400000000000007 2.0086392269276856
1.3600000000000008 2.043403432650104
1.3800000000000008 2.0790475596176194
1.4000000000000008 2.115008306525567
1.4200000000000008 2.1507197416713697
1.4400000000000008 2.185669866629796
1.4600000000000009 2.2194491063715462
1.4800000000000009 2.25178622289601
1.5000000000000009 2.2825686155135814
1.520000000000001 2.3118456929206417
1.540000000000001 2.339815786326153
1.560000000000001 2.3667987280184066
1.580000000000001 2.393197575705507
1.600000000000001 2.419453890243152
1.620000000000001 2.4460014018045393
1.640000000000001 2.4732228125069495
1.660000000000001 2.501413922430057
1.680000000000001 2.5307583143595216
1.700000000000001 2.5613146105799607
1.720000000000001 2.5930169572821042
1.740000000000001 2.6256880351911165
1.7600000000000011 2.659062680055201
1.7800000000000011 2.6928194878971454
1.8000000000000012 2.726616125249011
1.8200000000000012 2.7601251048156463
1.8400000000000012 2.7930662833399804
1.8600000000000012 2.8252329016849083
1.8800000000000012 2.8565088163244075
1.9000000000000012 2.8868755950001552
1.9200000000000013 2.9164092587198667
1.9400000000000013 2.9452675319712425
1.9600000000000013 2.9736693983881324
1.9800000000000013 3.001869459883389
2.0000000000000013 3.030130002129557
2.0200000000000014 3.0586937520159583
2.0400000000000014 3.0877600840463892
2.0600000000000014 3.1174669330105687
2.0800000000000014 3.147879966645498
2.1000000000000014 3.178989747035306
2.1200000000000014 3.210716754397988
2.1400000000000015 3.2429233470279977
2.1600000000000015 3.2754310665654005
2.1800000000000015 3.3080412284019234
2.2000000000000015 3.3405565023862267
2.2200000000000015 3.372801201616852
2.2400000000000015 3.4046382466942964
2.2600000000000016 3.4359812212260956
2.2800000000000016 3.4668005263672215
2.3000000000000016 3.497123309433184
2.3200000000000016 3.5270275079366136
2.3400000000000016 3.5566309469232444
2.3600000000000017 3.586074954003509
2.3800000000000017 3.6155088611209267
2.4000000000000017 3.6450750846387354
2.4200000000000017 3.674895072482063
2.4400000000000017 3.705057981693124
2.4600000000000017 3.7356132603560335
2.4800000000000018 3.766567740578512
2.5000000000000018 3.7978873142550773
2.520000000000002 3.8295027735415577
2.540000000000002 3.861318982696139
2.560000000000002 3.893226244091816
2.580000000000002 3.925112552386365
2.600000000000002 3.9568754076038903
2.620000000000002 3.9884319755867694
2.640000000000002 4.019726622341736
2.660000000000002 4.050735178699819
2.680000000000002 4.081465669333417
2.700000000000002 4.111955628404854
2.720000000000002 4.142266475469885
2.740000000000002 4.172475709028295
2.760000000000002 4.2026678620623015
2.780000000000002 4.23292524074798
2.800000000000002 4.263319432243524
2.820000000000002 4.2939044300362825
2.840000000000002 4.324712007096991
2.860000000000002 4.3557496932499715
2.880000000000002 4.387001419818354
2.900000000000002 4.418430608978695
2.920000000000002 4.449985240623303
2.940000000000002 4.481607618371568
2.960000000000002 4.513244342447052
2.980000000000002 4.544847287709456
3.000000000000002 4.5763768886931615
3.0200000000000022 4.607805263417862
3.0400000000000023 4.639118221575711
3.0600000000000023 4.670315809599946
3.0800000000000023 4.701411363779541
3.1000000000000023 4.732429244078858
3.1200000000000023 4.763401566344344
3.1400000000000023 4.794364337418786
3.1600000000000024 4.825353436137396
3.1800000000000024 4.856400870864641
3.2000000000000024 4.88753168753227
3.2200000000000024 4.91876180991352
3.2400000000000024 4.950096978066236
3.2600000000000025 4.981532825236468
3.2800000000000025 5.013056011469072
3.3000000000000025 5.044646226042593
3.3200000000000025 5.07627879212193
3.3400000000000025 5.1079275604282675
3.3600000000000025 5.139567768193394
3.3800000000000026 5.1711785641064445
3.4000000000000026 5.202744954368983
3.4200000000000026 5.234259001848517
3.4400000000000026 5.2657202001338
3.4600000000000026 5.297135036541391
3.4800000000000026 5.328515843453317
3.5000000000000027 5.35987910621667
3.5200000000000027 5.391242563824285
3.5400000000000027 5.422605852612763
3.5600000000000027 5.453963741877559
3.5800000000000027 5.48531102050635
3.6000000000000028 5.516644440488662
3.6200000000000028 5.547963458289833
3.640000000000003 5.579270338813185
3.660000000000003 5.6105698320718815
3.680000000000003 5.641868541918094
3.700000000000003 5.673174092163407
3.720000000000003 5.704494201989065
3.740000000000003 5.735835783159987
3.760000000000003 5.767204163639557
3.780000000000003 5.798602522752556
3.800000000000003 5.830031596052321
3.820000000000003 5.8614896744997695
3.840000000000003 5.892972888195256
3.860000000000003 5.92447573213347
3.880000000000003 5.955991764478152
3.900000000000003 5.987514391090986
3.920000000000003 6.019037642030146
3.940000000000003 6.050556849720772
3.960000000000003 6.0820691529649595
3.980000000000003 6.1135737735871665
4.000000000000003 6.145072040729358
4.020000000000002 6.176567168078149
4.040000000000002 6.2080638180975045
4.060000000000001 6.239567510740601
4.080000000000001 6.271083951915226
4.1000000000000005 6.3026183619426766
4.12 6.334159429486618
4.14 6.365685976072727
4.159999999999999 6.397177530307264
4.179999999999999 6.4286192026556845
4.199999999999998 6.460003913938074
4.219999999999998 6.491332957933894
4.2399999999999975 6.52261529566812
4.259999999999997 6.553865878364029
4.279999999999997 6.5851033214505446
4.299999999999996 6.616347286483487
4.319999999999996 6.647615930246065
4.339999999999995 6.678923742255604
4.359999999999995 6.710280017372572
4.379999999999995 6.741688108945448
4.399999999999994 6.773145497425877
4.419999999999994 6.8046446003788645
4.439999999999993 6.836174160662429
4.459999999999993 6.867720987602757
4.479999999999992 6.899271798089056
4.499999999999992 6.93081491197124
4.519999999999992 6.962341594930683
4.539999999999991 6.993846905014966
4.559999999999991 7.0253299757739995
4.57999999999999 7.05679374841517
4.59999999999999 7.088244236042265
4.6199999999999894 7.119689458532337
4.639999999999989 7.15113821659346
4.659999999999989 7.182598880460378
4.679999999999988 7.214078350996125
4.699999999999988 7.245577602798216
4.719999999999987 7.277088800017388
4.739999999999987 7.308601633662468
4.7599999999999865 7.34010654961109
4.779999999999986 7.371596644810775
4.799999999999986 7.403068720294352
4.819999999999985 7.43452361331668
4.839999999999985 7.46596587809375
4.859999999999984 7.497402923156332
4.879999999999984 7.528843769548779
4.8999999999999835 7.560297636147003
4.919999999999983 7.5917725701661
4.939999999999983 7.623274320105779
4.959999999999982 7.654805604085748
4.979999999999982 7.686365859062654
4.999999999999981 7.717951482689549
5.019999999999981 7.7495565057926115
5.0399999999999805 7.781173576644673
5.05999999999998 7.812795098227259
5.07999999999998 7.844414345674763
5.099999999999979 7.876026403899051
5.119999999999979 7.907628799378156
5.139999999999978 7.939221751245154
5.159999999999978 7.970808024440007
5.1799999999999775 8.00239242633241
5.199999999999977 8.03398103590772
5.219999999999977 8.06558028996181
5.239999999999976 8.097196061753284
5.259999999999976 8.128832863015619
5.279999999999975 8.160495852934103
5.299999999999975 8.19222256570879
5.3199999999999745 8.224052660049388
5.339999999999974 8.25601511858832
5.359999999999974 8.28812290130215
5.379999999999973 8.320371725495919
5.399999999999973 8.352741692117428
5.419999999999972 8.385200961694323
5.439999999999972 8.417710727711436
5.4599999999999715 8.45023070749717
5.479999999999971 8.482724392931125
5.499999999999971 8.51516340384448
5.51999999999997 8.547530454806733
5.53999999999997 8.579820667149368
5.559999999999969 8.612041192040495
5.579999999999969 8.644209329862973
5.599999999999969 8.676349509170635
5.619999999999968 8.70848960474169
5.639999999999968 8.74065711981969
5.659999999999967 8.772875729905142
5.679999999999967 8.805162600564774
5.699999999999966 8.837526756509321
5.719999999999966 8.869968622631621
5.739999999999966 8.902480698001968
5.759999999999965 8.935049182440224
5.779999999999965 8.967656268702985
5.799999999999964 9.000282752462576
5.819999999999964 9.032910600257031
5.839999999999963 9.065525153102973
5.859999999999963 9.098116714508249
5.879999999999963 9.130634386763724
5.899999999999962 9.163009376831237
5.919999999999962 9.19518503557356
5.939999999999961 9.2271295749339
5.959999999999961 9.25884043935336
5.9799999999999605 9.290343438911517
5.99999999999996 9.321688078621484
6.01999999999996 9.35294020261793
6.039999999999959 9.384173093624067
6.059999999999959 9.415458211243383
6.079999999999958 9.446856704981384
6.099999999999958 9.478412670848318
6.1199999999999575 9.510148860457326
6.139999999999957 9.542065217231851
6.159999999999957 9.574140257069535
6.179999999999956 9.606334969825127
6.199999999999956 9.638598628773126
6.219999999999955 9.670875697900367
6.239999999999955 9.70311293428096
6.2599999999999545 9.735265804552728
6.279999999999954 9.767303462257273
6.299999999999954 9.799211748884465
6.319999999999953 9.830993951324626
6.339999999999953 9.862669341075431
6.359999999999952 9.894269796672345
6.379999999999952 9.925835036308502
6.3999999999999515 9.957407135711538
6.419999999999951 9.989025063002593
6.439999999999951 10.02071992234001
6.45999999999995 10.052501569245118
6.47999999999995 10.084351843221558
6.499999999999949 10.116240620339289
6.519999999999949 10.148134438875678
6.5399999999999485 10.180002305975009
6.559999999999948 10.211819863841479
6.579999999999948 10.243572063688683
6.599999999999947 10.275254304264209
6.619999999999947 10.306872072263014
6.639999999999946 10.338439273559144
6.659999999999946 10.3699755919623
6.6799999999999455 10.401503303838334
6.699999999999945 10.433044023682598
6.719999999999945 10.464615823993181
6.739999999999944 10.49623108989532
6.759999999999944 10.527895342454354
6.779999999999943 10.559607114235543
6.799999999999943 10.591358808828803
6.8199999999999426 10.623138344586122
6.839999999999942 10.654931286242352
6.859999999999942 10.686723123288985
6.879999999999941 10.718501356198109
6.899999999999941 10.750257105939403
6.91999999999994 10.781986051762049
6.93999999999994 10.813688615276439
6.95999999999994 10.845369425175218
6.979999999999939 10.877036200988686
6.999999999999939 10.908698270092128
7.019999999999938 10.940364972213153
7.039999999999938 10.972043971745398
7.059999999999937 11.003738098976934
7.079999999999937 11.035446481323888
7.099999999999937 11.067165180195836
7.119999999999936 11.09888805889149
7.139999999999936 11.130607960338407
7.159999999999935 11.162318053285594
7.179999999999935 11.194013121363737
7.1999999999999345 11.225690567255544
7.219999999999934 11.257350953629967
7.239999999999934 11.2889979890843
7.259999999999933 11.320637961728215
7.279999999999933 11.35227872316849
7.299999999999932 11.383928399972765
7.319999999999932 11.415594053567824
7.3399999999999315 11.447280514716589
7.359999999999931 11.478989585262983
7.379999999999931 11.510719734730884
7.39999999999993 11.542466335954927
7.41999999999993 11.574222390707332
7.439999999999929 11.605979624002789
7.459999999999929 11.637729763021627
7.4799999999999285 11.669465794688334
7.499999999999928 11.70118300465393
7.519999999999928 11.73287964071767
7.539999999999927 11.764557107770678
7.559999999999927 11.796219677798017
7.579999999999926 11.827873774684761
7.599999999999926 11.859526956749255
7.6199999999999255 11.891186763044741
7.639999999999925 11.922889181239157
7.659999999999925 11.954681463789123
7.679999999999924 11.986603048835164
7.699999999999924 12.01867703246076
7.719999999999923 12.050906960317342
7.739999999999923 12.083277182868931
7.7599999999999225 12.115755921563627
7.779999999999922 12.148300306986094
7.799999999999922 12.18086257198242
7.819999999999921 12.213396522449372
7.839999999999921 12.245863427109292
7.85999999999992 12.278236595048744
7.87999999999992 12.310504113552216
7.8999999999999195 12.342669487277352
7.919999999999919 12.37475021047289
7.939999999999919 12.406774573901195
7.959999999999918 12.438777226817328
7.979999999999918 12.47079415421778
7.999999999999917 12.50285777361847
8.019999999999918 12.534992803770272
8.039999999999917 12.56721341650156
8.059999999999917 12.599521982900834
8.079999999999917 12.631909489720655
8.099999999999916 12.664357470017505
8.119999999999916 12.696841090218804
8.139999999999915 12.729332899300003
8.159999999999915 12.76180668272913
8.179999999999914 12.794240883133384
8.199999999999914 12.82662114329145
8.219999999999914 12.858933244247963
8.239999999999913 12.891159953957825
8.259999999999913 12.92329246627041
8.279999999999912 12.955333766159711
8.299999999999912 12.987298060177933
8.319999999999911 13.019208008089091
8.339999999999911 13.051090779622967
8.35999999999991 13.082973765287283
8.37999999999991 13.114880655500007
8.39999999999991 13.146828446553664
8.41999999999991 13.178825721059491
8.439999999999909 13.210872314654678
8.459999999999908 13.242960254288953
8.479999999999908 13.275075672764066
8.499999999999908 13.30720129146903
8.519999999999907 13.339319032256276
8.539999999999907 13.371412360363836
8.559999999999906 13.403468059592644
8.579999999999906 13.43547727343753
8.599999999999905 13.467435785290544
8.619999999999905 13.499343633535558
8.639999999999905 13.531204240096312
8.659999999999904 13.56302327512957
8.679999999999904 13.594807475064194
8.699999999999903 13.626563590855167
8.719999999999903 13.658297580654425
8.739999999999903 13.690014091455861
8.759999999999902 13.721716212269788
8.779999999999902 13.753405439133699
8.799999999999901 13.78508037614611
8.8199999999999 13.816727530780033
8.8399999999999 13.84833067644042
8.8599999999999 13.879875128688374
8.8799999999999 13.911350209738933
8.899999999999899 13.942750591886682
8.919999999999899 13.974076737726902
8.939999999999898 14.005334526215035
8.959999999999898 14.03653417840462
8.979999999999897 14.067688661351553
8.999999999999897 14.098811803512065
9.019999999999897 14.129916385796685
9.039999999999896 14.161012461548195
9.059999999999896 14.19210611464321
9.079999999999895 14.223198793215218
9.099999999999895 14.254287270155494
9.119999999999894 14.285364195109578
9.139999999999894 14.3164191272971
9.159999999999894 14.347439886838208
9.179999999999893 14.378414032469797
9.199999999999893 14.409330280077421
9.219999999999892 14.440179693345504
9.239999999999892 14.47095652342579
9.259999999999891 14.501658624843348
9.279999999999891 14.532287429373948
9.29999999999989 14.562847511218493
9.31999999999989 14.593345818406464
9.33999999999989 14.623790678118342
9.35999999999989 14.65419070018744
9.379999999999889 14.684553707233519
9.399999999999888 14.714863335183631
9.419999999999888 14.745093225365355
9.439999999999888 14.775221161843604
9.459999999999887 14.805235177476842
9.479999999999887 14.835135311166669
9.499999999999886 14.86493240195043
9.519999999999886 14.894644851731924
9.539999999999885 14.924294286084866
9.559999999999885 14.953901062828438
9.579999999999885 14.983480480164614
9.599999999999884 15.01304032234581
9.619999999999884 15.042580070383451
9.639999999999883 15.072091771543286
9.659999999999883 15.101562257005213
9.679999999999882 15.130976177369412
9.699999999999882 15.16031922158729
9.719999999999882 15.189580905365803
9.739999999999881 15.21875644515162
9.75999999999988 15.247847439803662
9.77999999999988 15.276861323770383
9.79999999999988 15.305809780330009
9.81999999999988 15.334706480404062
9.839999999999879 15.363564608464332
9.859999999999879 15.392394641739312
9.879999999999878 15.42120277029293
9.899999999999878 15.44999020355804
9.919999999999877 15.478753431900177
9.939999999999877 15.507485337423155
9.959999999999877 15.536176902407787
9.979999999999876 15.564815677345205
9.999999999999876 15.593387244949987
10.019999999999875 15.621882288433477
10.039999999999875 15.650299418337172
10.059999999999874 15.678645281449683
10.079999999999874 15.706932915210215
10.099999999999874 15.735179018950499
10.119999999999873 15.763400791841981
10.139999999999873 15.791612959150257
10.159999999999872 15.81982550165547
10.179999999999872 15.84804243166854
10.199999999999871 15.876261750557514
10.219999999999871 15.904476509432234
10.23999999999987 15.932676712408435
10.25999999999987 15.960851680234386
10.27999999999987 15.988992440848913
10.29999999999987 16.017093736084426
10.319999999999869 16.045155321683122
10.339999999999868 16.073182370306967
10.359999999999868 16.10118494320104
10.379999999999868 16.129176649102998
10.399999999999867 16.157172733249855
10.419999999999867 16.185187922674054
10.439999999999866 16.213234382704172
10.459999999999866 16.241320110168143
10.479999999999865 16.269448010196314
10.499999999999865 16.29761578945081
10.519999999999865 16.325816666896085
10.539999999999864 16.354040772430206
10.559999999999864 16.38227816212017
10.579999999999863 16.410526678995648
10.599999999999863 16.438785404903232
10.619999999999862 16.467052411203504
10.639999999999862 16.49532467208437
10.659999999999862 16.52359910760991
10.679999999999861 16.5518741598357
10.69999999999986 16.58015138313708
10.71999999999986 16.608436582663412
10.73999999999986 16.636740146865115
10.75999999999986 16.665076395579685
10.779999999999859 16.69346197879469
10.799999999999859 16.721913576325303
10.819999999999858 16.750445301979532
10.839999999999858 16.779066300979103
10.859999999999857 16.807779014623645
10.879999999999857 16.836578470562298
10.899999999999856 16.865452779494476
