# (1): time [s] (2): displacement/rotation [m/rad] (3): support force/ moment [N]/[N m]
0.05 0.0 0.0
0.1 2.5582548460723382e-09 4.039834126064596
0.15000000000000002 9.528157561329887e-09 15.046263328251886
0.2 1.7398449690031753e-08 27.474530501259064
0.25 2.790366853551558e-08 44.063707165546106
0.3 4.508029009249584e-08 71.1879407198851
0.35 7.218153316518117e-08 113.98450838471192
0.39999999999999997 1.0986550579286916e-07 173.49265272019355
0.44999999999999996 1.5681452285870218e-07 247.63156879375595
0.49999999999999994 2.1192574366745782e-07 334.65972038471625
0.5499999999999999 2.753039021969569e-07 434.7424967616256
0.6 3.471339443414692e-07 548.1719527744116
0.65 4.2648534437334385e-07 673.4786610923624
0.7000000000000001 5.114764041146658e-07 807.6911630565542
0.7500000000000001 6.003412110484539e-07 948.0208413950616
0.8000000000000002 6.920719613195007e-07 1092.876236049518
0.8500000000000002 7.862614040416637e-07 1241.6142421978082
0.9000000000000002 8.828087895991324e-07 1394.0757624236744
0.9500000000000003 9.816725295191791e-07 1550.195122843362
1.0000000000000002 1.0825608743965423e-06 1709.511611262601
1.0500000000000003 1.1847074181290053e-06 1870.8149676750784
1.1000000000000003 1.2869303966424085e-06 2032.2390250556139
1.1500000000000004 1.3878959591142073e-06 2191.6774506124343
1.2000000000000004 1.4863657572471662e-06 2347.1747230968235
1.2500000000000004 1.581330201679966e-06 2497.136562892178
1.3000000000000005 1.6720053284348658e-06 2640.3249837064973
1.3500000000000005 1.7577462123552292e-06 2775.7215605534907
1.4000000000000006 1.8379317763780912e-06 2902.34552784691
1.4500000000000006 1.9118719861872253e-06 3019.1072270708623
1.5000000000000007 1.9787773089484925e-06 3124.759877947807
1.5500000000000007 2.0377968481464183e-06 3217.9597985587056
1.6000000000000008 2.0880930752487905e-06 3297.3844168575474
1.6500000000000008 2.1289096577220836e-06 3361.839380380082
1.7000000000000008 2.159607207560242e-06 3410.315008057738
1.7500000000000009 2.179666749764026e-06 3441.9917674206663
1.800000000000001 2.1886734202445207e-06 3456.2145313588185
1.850000000000001 2.1862933724258355e-06 3452.456110490643
1.900000000000001 2.1722533534176372e-06 3430.285001147492
1.950000000000001 2.146329385100267e-06 3389.347511259681
2.000000000000001 2.108347156414649e-06 3329.36837983588
2.0500000000000007 2.0581915790638376e-06 3250.165866722161
2.1000000000000005 1.995820198899656e-06 3151.6729310148926
2.1500000000000004 1.9212770242216493e-06 3033.9590678351765
2.2 1.8347054561903667e-06 2897.250727219056
2.25 1.7363552255589525e-06 2741.9422681649826
2.3 1.6265702647792186e-06 2568.576807031369
2.3499999999999996 1.505766744834117e-06 2377.8115346926074
2.3999999999999995 1.3744179019249432e-06 2170.393755803907
2.4499999999999993 1.2330484195134558e-06 1947.1520172778046
2.499999999999999 1.0822319071401552e-06 1708.9921269935685
2.549999999999999 9.225905841789103e-07 1456.8966544025238
2.5999999999999988 7.547955547875906e-07 1191.925364712686
2.6499999999999986 5.795615956671254e-07 915.206988047781
2.6999999999999984 3.9764270534909645e-07 627.9321911639233
2.7499999999999982 2.0982506887166924e-07 331.34246771115266
2.799999999999998 1.6927425151270843e-08 26.73071836353494
2.849999999999998 -1.8019847661146312e-07 -284.55802845345505
2.8999999999999977 -3.806692884207073e-07 -601.1288454970506
2.9499999999999975 -5.835592261055592e-07 -921.5197930028362
2.9999999999999973 -7.879015064956876e-07 -1244.2041881815635
3.049999999999997 -9.92706902229682e-07 -1567.6199057980562
3.099999999999997 -1.196983238868723e-06 -1890.2001667790307
3.149999999999997 -1.3997482959084582e-06 -2210.3939106744715
3.1999999999999966 -1.6000357171773054e-06 -2526.675128984528
3.2499999999999964 -1.7968920188280153e-06 -2837.5381403691713
3.2999999999999963 -1.989378542339907e-06 -3141.500674705708
3.349999999999996 -2.176581089347926e-06 -3437.119087800985
3.399999999999996 -2.3576118590444595e-06 -3722.991420813705
3.4499999999999957 -2.5316046252139044e-06 -3997.7497841326917
3.4999999999999956 -2.697711631634505e-06 -4260.055454791978
3.5499999999999954 -2.8551044861155475e-06 -4508.600288277756
3.599999999999995 -3.0029825118398663e-06 -4742.119906439859
3.649999999999995 -3.1405902910727352e-06 -4959.4214014063955
3.699999999999995 -3.267222981491524e-06 -5159.391730795046
3.7499999999999947 -3.382213132772692e-06 -5340.976899301693
3.7999999999999945 -3.48491507321419e-06 -5503.157303042785
3.8499999999999943 -3.574698488286736e-06 -5644.937589209959
3.899999999999994 -3.6509511118547105e-06 -5765.350905875733
3.949999999999994 -3.7130862404114066e-06 -5863.4707679982
3.999999999999994 -3.76055099363349e-06 -5938.4241019657675
4.049999999999994 -3.792833070830689e-06 -5989.401914954852
4.099999999999993 -3.8094655494452445e-06 -6015.666872416491
4.149999999999993 -3.8100302359397183e-06 -6016.558589586266
4.199999999999993 -3.7941602546246695e-06 -5991.497719597112
4.249999999999993 -3.7615423671595437e-06 -5939.989616288306
4.299999999999993 -3.7119192688785354e-06 -5861.627960417917
4.3499999999999925 -3.645091899672541e-06 -5756.098408861324
4.399999999999992 -3.5610224202843916e-06 -5623.341208258673
4.449999999999992 -3.459667455009095e-06 -5463.28786244214
4.499999999999992 -3.340900049824673e-06 -5275.737893655879
4.549999999999992 -3.2046589175286434e-06 -5060.594521028953
4.599999999999992 -3.05103807998643e-06 -4818.006217940047
4.6499999999999915 -2.880255899061606e-06 -4548.317807622721
4.699999999999991 -2.692613034624539e-06 -4252.004073113747
4.749999999999991 -2.4884643641690977e-06 -3929.625414489177
4.799999999999991 -2.26821104675243e-06 -3581.8153167403652
4.849999999999991 -2.0323055466185746e-06 -3209.2882827623994
4.899999999999991 -1.7812598254271147e-06 -2812.8527700030577
4.94999999999999 -1.5156508958195978e-06 -2393.419960303381
4.99999999999999 -1.236122183671747e-06 -1952.0059110801376
5.04999999999999 -9.433815484147524e-07 -1489.7284291425171
5.09999999999999 -6.381975383953293e-07 -1007.8011573937497
5.14999999999999 -3.213952205948268e-07 -507.52698938748597
5.1999999999999895 6.147663087350394e-09 9.708000426132486
5.249999999999989 3.435040265853291e-07 542.4398164125568
5.299999999999989 6.897004406553267e-07 1089.1312807240129
5.349999999999989 1.043720126516414e-06 1648.1767606675103
5.399999999999989 1.4045062291937443e-06 2217.9073377612795
5.449999999999989 1.7709655357890845e-06 2796.596679392243
5.4999999999999885 2.1419726741374126e-06 3382.4676690687593
5.549999999999988 2.5163747373808344e-06 3973.699709255033
5.599999999999988 2.892996244869791e-06 4568.4365553123
5.649999999999988 3.2706443749885996e-06 5164.794578845701
5.699999999999988 3.648114682222657e-06 5760.87179573495
5.749999999999988 4.024204861394071e-06 6354.769601744018
5.799999999999987 4.3977297246980594e-06 6944.616423309032
5.849999999999987 4.767516987545498e-06 7528.561062807571
5.899999999999987 5.1323983833536235e-06 8104.758667598531
5.949999999999987 5.4912073082262585e-06 8671.367010650227
5.999999999999987 5.842784232160924e-06 9226.555035576153
6.0499999999999865 6.18598648271158e-06 9768.518306375918
6.099999999999986 6.519698366885376e-06 10295.494991293921
6.149999999999986 6.842839215228488e-06 10805.778565530549
6.199999999999986 7.154369036964391e-06 11297.726741478587
6.249999999999986 7.453292629493883e-06 11769.76795818555
6.299999999999986 7.738663072938922e-06 12220.406899716107
6.349999999999985 8.009585184188962e-06 12648.229949563438
6.399999999999985 8.265219154550538e-06 13051.910934995207
6.449999999999985 8.504784334684928e-06 13430.21710398755
6.499999999999985 8.72756286611826e-06 13782.014859875972
6.549999999999985 8.932902834899616e-06 14106.274741412615
6.5999999999999845 9.120220813550728e-06 14402.075436852323
6.649999999999984 9.289003855641547e-06 14668.60693366013
6.699999999999984 9.438811089567388e-06 14905.173035303253
6.749999999999984 9.569275025807993e-06 15111.193425591846
6.799999999999984 9.680102610825793e-06 15286.205332928452
6.849999999999984 9.77107599551517e-06 15429.864743794415
6.8999999999999835 9.842052965619505e-06 15541.947082437253
6.949999999999983 9.892966998201891e-06 15622.347300045623
6.999999999999983 9.923826937644416e-06 15671.07936310791
7.049999999999983 9.934716306521991e-06 15688.275165187782
7.099999999999983 9.925792274656253e-06 15674.182898919375
7.149999999999983 9.8972843081086e-06 15629.164922582602
7.199999999999982 9.849492515753063e-06 15553.695149115698
7.249999999999982 9.782785708864546e-06 15448.355981939774
7.299999999999982 9.697599191853392e-06 15313.834826226692
7.349999999999982 9.594432316172502e-06 15150.920226184011
7.399999999999982 9.47384585292541e-06 14960.497716043965
7.4499999999999815 9.336459150478736e-06 14743.545331544949
7.499999999999981 9.182946888032612e-06 14501.128483375436
7.549999999999981 9.014035487151995e-06 14234.394290491357
7.599999999999981 8.830499372754962e-06 13944.565675705468
7.649999999999981 8.633157184962674e-06 13632.93538368061
7.699999999999981 8.42286795183222e-06 13300.859937151645
7.7499999999999805 8.200527203632302e-06 12949.753500835577
7.79999999999998 7.96706301268063e-06 12581.081627793435
7.84999999999998 7.723431939633406e-06 12196.354858067194
7.89999999999998 7.470614843805694e-06 11797.122102602905
7.94999999999998 7.209612560498613e-06 11384.963817159394
7.99999999999998 6.9414415452628695e-06 10961.485124004948
8.04999999999998 6.667129611710931e-06 10528.309081340061
8.09999999999998 6.387711849524102e-06 10087.070237272594
8.14999999999998 6.1042267025160985e-06 9639.408436544009
8.199999999999982 5.8177119456524295e-06 9186.962467693014
8.249999999999982 5.529200256912861e-06 8731.363070421052
8.299999999999983 5.239714493766404e-06 8274.225476500575
8.349999999999984 4.950263083882106e-06 7817.14213107728
8.399999999999984 4.661835832751582e-06 7361.676072332973
8.449999999999985 4.375400188952733e-06 6909.355033826416
8.499999999999986 4.091897838081091e-06 6461.666065845306
8.549999999999986 3.812241472166815e-06 6020.050433874075
8.599999999999987 3.537311643549579e-06 5585.898650432248
8.649999999999988 3.2679536864470134e-06 5160.545613810181
8.699999999999989 3.0049747357364214e-06 4745.265900317842
8.74999999999999 2.7491408980686452e-06 4341.2692970868875
8.79999999999999 2.5011746628104946e-06 3949.6967135948234
8.84999999999999 2.2617526427991515e-06 3571.6166140073583
8.899999999999991 2.031503643446309e-06 3208.0219680298806
8.949999999999992 1.8110069311083778e-06 2859.8275164272923
8.999999999999993 1.6007905236257496e-06 2527.8670715518138
9.049999999999994 1.401329415529179e-06 2212.890714701242
9.099999999999994 1.2130438293985901e-06 1915.562034775458
9.149999999999995 1.0362977063236048e-06 1636.455744507241
9.199999999999996 8.713976201644605e-07 1376.0559659318321
9.249999999999996 7.185921753945619e-07 1134.755279498007
9.299999999999997 5.780718733635987e-07 912.8545128792549
9.349999999999998 4.499695343383405e-07 710.5634074338902
9.399999999999999 3.343612705204316e-07 528.0021547331648
9.45 2.3129742368364732e-07 365.25025131980084
9.5 1.4073929736220502e-07 222.24659018435878
9.55 6.256672313567871e-08 98.80140896346143
9.600000000000001 -3.3754620127447473e-09 -5.33031595787128
9.650000000000002 -5.7286812800914003e-08 -90.46370875908528
9.700000000000003 -9.941295351096531e-08 -156.98664375953837
9.750000000000004 -1.300473373367495e-07 -205.36252366859762
9.800000000000004 -1.4953240176529238e-07 -236.13210409091064
9.850000000000005 -1.58258790481602e-07 -249.91226480772758
9.900000000000006 -1.566629695554214e-07 -247.3922454099064
9.950000000000006 -1.452239274440643e-07 -229.32843415126695
10.000000000000007 -1.2445969692294187e-07 -196.53887560142633
10.050000000000008 -9.492416491371291e-08 -149.89823292833805
10.100000000000009 -5.7204258811486505e-08 -90.3333447243043
10.15000000000001 -1.191734459177721e-08 -18.819116261168446
10.20000000000001 4.029139102087029e-08 63.625614423294984
10.25000000000001 9.875172419442344e-08 155.94247227591103
10.300000000000011 1.6277137730064557e-07 257.0382562844524
10.350000000000012 2.3163915805809126e-07 365.7898966135633
10.400000000000013 3.0462818759110245e-07 481.04955215120305
10.450000000000014 3.809991616212554e-07 601.6497603757597
10.500000000000014 4.6000360842796324e-07 726.4085821212178
10.550000000000015 5.408871218089219e-07 854.1347068636626
10.600000000000016 6.228925573183597e-07 983.6325000184139
10.650000000000016 7.052631894400693e-07 1113.706988547844
10.700000000000017 7.872458364179446e-07 1243.168795495971
10.750000000000018 8.680939636382231e-07 1370.8390406532658
10.800000000000018 9.470707615390046e-07 1495.5542009965454
10.85000000000002 1.0234521737808603e-06 1616.1708925843277
10.90000000000002 1.0965298423950484e-06 1731.5705213484782
10.95000000000002 1.16561394930804e-06 1840.6637702498845
11.000000000000021 1.2300359284334543e-06 1942.3948820423766
11.050000000000022 1.2891510157781272e-06 2035.745686238819
11.100000000000023 1.3423406274557187e-06 2119.7393543196818
11.150000000000023 1.389014573386755e-06 2193.4438954680277
11.200000000000024 1.4286131257877195e-06 2255.9754229965597
11.250000000000025 1.4606089468843285e-06 2306.5011984704097
11.300000000000026 1.484508863193345e-06 2344.2424335406713
11.350000000000026 1.4998554821535867e-06 2368.476842825766
11.400000000000027 1.5062286328524474e-06 2378.540919015571
11.450000000000028 1.5032466151100752e-06 2373.8319053460923
11.500000000000028 1.4905673178002792e-06 2353.809561581055
11.55000000000003 1.4678892886327006e-06 2317.9978533441963
11.60000000000003 1.4349527566227066e-06 2265.986566739003
11.65000000000003 1.391540620488116e-06 2197.43286916226
11.700000000000031 1.3374794231101108e-06 2112.0628481110407
11.750000000000032 1.2726402668462817e-06 2009.6729565871353
11.800000000000033 1.1969395842197891e-06 1890.1312301205912
11.850000000000033 1.1103397046052334e-06 1753.378181644171
11.900000000000034 1.012849171121844e-06 1599.4273019110174
11.950000000000035 9.045228156825788e-07 1428.3651780074426
12.000000000000036 7.854617082716001e-07 1240.351413255128
12.050000000000036 6.558127989851098e-07 1035.618061944667
12.100000000000037 5.157681163345258e-07 814.4683633466885
12.150000000000038 3.6556370781228384e-07 577.2750687204257
12.200000000000038 2.0547851139836053e-07 324.4786592682478
12.250000000000039 3.583338882200658e-08 56.58581952377958
12.30000000000004 -1.4300960003025786e-07 -225.83170845706584
12.35000000000004 -3.306481752151621e-07 -522.1386696505166
12.400000000000041 -5.266412824913841e-07 -831.6385791155693
12.450000000000042 -7.305108237620773e-07 -1153.5764545992974
12.500000000000043 -9.417434186611173e-07 -1487.1415983223521
12.550000000000043 -1.159792017738943e-06 -1831.4701444199322
12.600000000000044 -1.3840772966231831e-06 -2185.6472605120043
12.650000000000045 -1.6139891190161287e-06 -2548.709457976307
12.700000000000045 -1.8488883329814209e-06 -2919.6474285305912
12.750000000000046 -2.088108986031124e-06 -3297.4095421579223
12.800000000000047 -2.3309609073923583e-06 -3680.9059248586977
12.850000000000048 -2.5767325285614872e-06 -4069.01291269129
12.900000000000048 -2.8246932963981792e-06 -4460.576862377452
12.950000000000049 -3.0740961254851442e-06 -4854.418023913587
13.00000000000005 -3.3241803656381475e-06 -5249.335226674734
13.05000000000005 -3.574175004473505e-06 -5644.110936706445
13.100000000000051 -3.823301838045267e-06 -6037.516263594334
13.150000000000052 -4.070778663146622e-06 -6428.316001544407
13.200000000000053 -4.31582234612892e-06 -6815.273475467805
13.250000000000053 -4.557651535322925e-06 -7197.154824264769
13.300000000000054 -4.7954892971893725e-06 -7572.733163666742
13.350000000000055 -5.028566044270702e-06 -7940.793209872419
13.400000000000055 -5.256122707252185e-06 -8300.136288665899
13.450000000000056 -5.477413875578121e-06 -8649.585294878998
13.500000000000057 -5.6917108089443e-06 -8987.989447949523
13.550000000000058 -5.898304742268491e-06 -9314.229510921492
13.600000000000058 -6.096510357320733e-06 -9627.223272623927
13.650000000000059 -6.285669545631722e-06 -9925.931489817629
13.70000000000006 -6.465154926518492e-06 -10209.363442638632
13.75000000000006 -6.634372521375203e-06 -10476.58115766896
13.800000000000061 -6.792763723693246e-06 -10726.702518867678
13.850000000000062 -6.939806140626252e-06 -10958.902596517088
13.900000000000063 -7.075013273974532e-06 -11172.413143453545
13.950000000000063 -7.197934757367125e-06 -11366.522969610342
14.000000000000064 -7.308158216416977e-06 -11540.580879457015
14.050000000000065 -7.405312121935417e-06 -11694.000177615064
14.100000000000065 -7.489068561423942e-06 -11826.263045422349
14.150000000000066 -7.559145312242158e-06 -11936.923814748669
14.200000000000067 -7.6153076491202514e-06 -12025.611822305069
14.250000000000068 -7.657369467209085e-06 -12092.033183093448
14.300000000000068 -7.68519285918471e-06 -12135.970122596786
14.350000000000069 -7.698687285287818e-06 -12157.27966615797
14.40000000000007 -7.697808715866944e-06 -12155.892284938303
14.45000000000007 -7.682559960761982e-06 -12131.812416059094
14.500000000000071 -7.652992416414872e-06 -12085.121221528272
14.550000000000072 -7.609208339727457e-06 -12015.980178972792
14.600000000000072 -7.5513625443635185e-06 -11924.63376033144
14.650000000000073 -7.479662882599376e-06 -11811.410192762802
14.700000000000074 -7.394369515136443e-06 -11676.720305579458
14.750000000000075 -7.295793273389735e-06 -11521.054944077672
14.800000000000075 -7.184293465428128e-06 -11344.981504817113
14.850000000000076 -7.06027540770483e-06 -11149.140037885847
14.900000000000077 -6.924187846530905e-06 -10934.239175054538
14.950000000000077 -6.776520336821289e-06 -10701.051990458069
15.000000000000078 -6.617800600476438e-06 -10450.411829119046
15.050000000000079 -6.448591885635771e-06 -10183.208136847987
15.10000000000008 -6.269490408237828e-06 -9900.382420117052
15.15000000000008 -6.081122904396414e-06 -9602.924380927383
15.200000000000081 -5.884144272832566e-06 -9291.868193886885
15.250000000000082 -5.679235292868869e-06 -8968.288902611295
15.300000000000082 -5.467100629702771e-06 -8633.299269778057
15.350000000000083 -5.248466981518237e-06 -8288.04685116233
15.400000000000084 -5.0240810441633835e-06 -7933.710781584727
15.450000000000085 -4.794707511257585e-06 -7571.498616807049
15.500000000000085 -4.561126832272237e-06 -7202.642793235333
15.550000000000086 -4.324131552945743e-06 -6828.394848934825
15.600000000000087 -4.08452282338115e-06 -6450.0199094388045
15.650000000000087 -3.843107305106823e-06 -6068.791803574553
15.700000000000088 -3.6006938170616115e-06 -5685.987767015443
15.750000000000089 -3.358089692946717e-06 -5302.882690041556
15.80000000000009 -3.1160970821151418e-06 -4920.743276138449
15.85000000000009 -2.875509425028428e-06 -4540.82247626152
15.900000000000091 -2.6371081918164295e-06 -4164.354338576037
15.950000000000092 -2.401659928782394e-06 -3792.5493444849067
16.000000000000092 -2.1699136560369376e-06 -3426.590299136969
16.050000000000093 -1.942598580956114e-06 -3067.6287206647044
16.100000000000094 -1.7204090213021613e-06 -2716.761031730823
16.150000000000095 -1.5040337572906694e-06 -2375.074910454872
16.200000000000095 -1.2941311271099611e-06 -2043.6099628337925
16.250000000000096 -1.0913930420714966e-06 -1723.458811415543
16.300000000000097 -8.964175464597028e-07 -1415.565849880385
16.350000000000097 -7.097235915949328e-07 -1120.750573305967
16.400000000000098 -5.317764785340567e-07 -839.7477556696841
16.4500000000001 -3.6304465263209303e-07 -573.297136225546
16.5000000000001 -2.0401458786112175e-07 -322.16692387848934
16.5500000000001 -5.5167528002222935e-08 -87.11706834687357
16.6000000000001 8.305362109636898e-08 131.15302148786097
16.6500000000001 2.102654095334131e-07 332.0378258124528
16.700000000000102 3.261464660755482e-07 515.0298555166354
16.750000000000103 4.304276355309634e-07 679.7040777579011
