# (1): time [s] (2): displacement/rotation [m/rad] (3): support force/ moment [N]/[N m]
0.05 0.0 0.0
0.1 3.595549250206168e-12 1.4194659481667333e-05
0.15000000000000002 1.9430301101448907e-11 7.67077541061406e-05
0.2 6.080007287205052e-11 0.0002400290667218174
0.25 1.4446635662595883e-10 0.0005703303156659632
0.3 2.8901295638390527e-10 0.001140977418519375
0.35 5.129342132194713e-10 0.00202498310730408
0.39999999999999997 8.32676149658256e-10 0.003287273676539705
0.44999999999999996 1.2607889340499064e-09 0.004977395204937486
0.49999999999999994 1.8043254436878233e-09 0.007123191336007539
0.5499999999999999 2.463926301166729e-09 0.009727191146381988
0.6 3.2338757478246803e-09 0.01276682972532264
0.65 4.1037509997004696e-09 0.01620095957104744
0.7000000000000001 5.063052115187388e-09 0.019988128575599288
0.7500000000000001 6.1099680444371015e-09 0.0241211870007567
0.8000000000000002 7.265060622291288e-09 0.02868130971677883
0.8500000000000002 8.589917060440037e-09 0.03391163328988462
0.9000000000000002 1.0302688225785112e-08 0.040673382822504094
0.9500000000000003 1.2852561244610072e-08 0.05073987801002963
1.0000000000000002 1.7175678994510268e-08 0.06780686279836663
1.0500000000000003 2.4654351998965114e-08 0.09733148039799691
1.1000000000000003 3.683258106154483e-08 0.14540920165940135
1.1500000000000004 5.488903965151933e-08 0.21669324292648137
1.2000000000000004 7.889732905471897e-08 0.31147417042905984
1.2500000000000004 1.0704829812579706e-07 0.4226097417245969
1.3000000000000005 1.3512380599735148e-07 0.5334474041453618
1.3500000000000005 1.565095073025959e-07 0.617874768834411
1.4000000000000006 1.6289072030724346e-07 0.6430667880163942
1.4500000000000006 1.4554534314207598e-07 0.5745899836932375
1.5000000000000007 9.693792649836381e-08 0.3826955944002912
1.5500000000000007 1.2222458679807448e-08 0.04825233279134416
1.6000000000000008 -1.096929915125749e-07 -0.4330505727204667
1.6500000000000008 -2.657175227133797e-07 -1.0490107326474134
1.7000000000000008 -4.488028310805671e-07 -1.7718025587416515
1.7500000000000009 -6.506490390942254e-07 -2.5686594479235714
1.800000000000001 -8.644183796299559e-07 -3.4125869775913373
1.850000000000001 -1.084221972610773e-06 -4.280336781054828
1.900000000000001 -1.3044435336268681e-06 -5.149736656182516
1.950000000000001 -1.519567926470491e-06 -5.999013717938954
2.000000000000001 -1.7242383543856814e-06 -6.807020180388797
2.0500000000000007 -1.913385784200471e-06 -7.553744302690712
2.1000000000000005 -2.082374508635408e-06 -8.220885046057724
2.1500000000000004 -2.2255828230049276e-06 -8.786248809967324
2.2 -2.3364946534509675e-06 -9.224111165928568
2.25 -2.4100307943327394e-06 -9.514420213802914
2.3 -2.4444321723094657e-06 -9.650231410395968
2.3499999999999996 -2.4424737680711855e-06 -9.64249994036027
2.3999999999999995 -2.4122070413670664e-06 -9.523011692726055
2.4499999999999993 -2.3671069953356027e-06 -9.344963847605468
2.499999999999999 -2.3220083353037717e-06 -9.16692147419211
2.549999999999999 -2.2926459229627103e-06 -9.051003316564934
2.5999999999999988 -2.2953213607436533e-06 -9.061565521563988
2.6499999999999986 -2.345649765337999e-06 -9.260254098957653
2.6999999999999984 -2.4568764627838524e-06 -9.699359500009745
2.7499999999999982 -2.6382486324676526e-06 -10.415388125668288
2.799999999999998 -2.89380602775642e-06 -11.42428828297747
2.849999999999998 -3.2202805718090857e-06 -12.713158121707801
2.8999999999999977 -3.6067119636736004e-06 -14.238728108053841
2.9499999999999975 -4.035860599560751e-06 -15.932939014243166
2.9999999999999973 -4.486504344130541e-06 -17.712009208134923
3.049999999999997 -4.935965558096616e-06 -19.486410958326335
3.099999999999997 -5.362603672538753e-06 -21.17071072311457
3.149999999999997 -5.748148037025253e-06 -22.692778865735036
3.1999999999999966 -6.079763461723683e-06 -24.00194408776413
3.2499999999999964 -6.351680551525097e-06 -25.075429730258307
3.2999999999999963 -6.564695099419974e-06 -25.916377458018044
3.349999999999996 -6.725577472501056e-06 -26.55151560898554
3.399999999999996 -6.84263690185333e-06 -27.013647712635226
3.4499999999999957 -6.925404834405352e-06 -27.34040241318903
3.4999999999999956 -6.985074585084123e-06 -27.57596914675347
3.5499999999999954 -7.034364256311013e-06 -27.770556969181133
3.599999999999995 -7.087005715222549e-06 -27.97837711900236
3.649999999999995 -7.157157786819375e-06 -28.255326396833386
3.699999999999995 -7.258897435489042e-06 -28.65697843054356
3.7499999999999947 -7.405636454883005e-06 -29.236280859192437
3.7999999999999945 -7.609500623945327e-06 -30.041104339273204
3.8499999999999943 -7.88074414277963e-06 -31.111930830174806
3.899999999999994 -8.22998875895441e-06 -32.49069331051695
3.949999999999994 -8.66501225173611e-06 -34.20809722209116
3.999999999999994 -9.188091190834317e-06 -36.273130101867494
4.049999999999994 -9.795131584732634e-06 -38.66962951917063
4.099999999999993 -1.0472408539944378e-05 -41.34341176633632
4.149999999999993 -1.1197854787649914e-05 -44.20735875797965
4.199999999999993 -1.1945145827480979e-05 -47.15754553222418
4.249999999999993 -1.2688306707327914e-05 -50.09142708840607
4.299999999999993 -1.3405648002116904e-05 -52.92337700845909
4.3499999999999925 -1.4082818927776654e-05 -55.59674066773158
4.399999999999992 -1.4714647751231286e-05 -58.09110088241277
4.449999999999992 -1.530541862591797e-05 -60.42337081235001
4.499999999999992 -1.5867486518913256e-05 -62.642325912516924
4.549999999999992 -1.641852917351526e-05 -64.81775511613608
4.599999999999992 -1.6978065395703707e-05 -67.02671558056808
4.6499999999999915 -1.7563975545986255e-05 -69.33979613971671
4.699999999999991 -1.8189676111529195e-05 -71.8099629618954
4.749999999999991 -1.886240943179551e-05 -74.46580765727936
4.799999999999991 -1.9582860032474602e-05 -77.31003262497129
4.849999999999991 -2.0345991093685466e-05 -80.32275329710518
4.899999999999991 -2.1144353475472033e-05 -83.47456164788312
4.94999999999999 -2.1969258204179272e-05 -86.73115498425449
4.99999999999999 -2.281346018216024e-05 -90.06393080717021
5.04999999999999 -2.3670940432665405e-05 -93.4491271488634
5.09999999999999 -2.4536477762324677e-05 -96.86613156410831
5.14999999999999 -2.540563018689616e-05 -100.29740780201558
5.1999999999999895 -2.627487009936419e-05 -103.72902942829438
5.249999999999989 -2.7141705014295773e-05 -107.15115650486506
5.299999999999989 -2.8004732780565117e-05 -110.55825356095875
5.349999999999989 -2.8863624397606205e-05 -113.94902175440174
5.399999999999989 -2.9719042061832676e-05 -117.3260753318494
5.449999999999989 -3.057250383101998e-05 -120.6954073451824
5.4999999999999885 -3.14262055119313e-05 -124.0656864920383
5.549999999999988 -3.2282809632550015e-05 -127.4474240115782
5.599999999999988 -3.3145244596522746e-05 -130.85218077800965
5.649999999999988 -3.4016567055885816e-05 -134.29202396988876
5.699999999999988 -3.4899777221675886e-05 -137.77879794563617
5.749999999999988 -3.57975870213819e-05 -141.323208965844
5.799999999999987 -3.671219196954417e-05 -144.9339245745002
5.849999999999987 -3.7645083975777656e-05 -148.61683459468543
5.899999999999987 -3.8596924985884025e-05 -152.3745522836787
5.949999999999987 -3.956748773284241e-05 -156.20618042724425
5.999999999999987 -4.055566333030167e-05 -160.10734131753745
6.0499999999999865 -4.1559532538682903e-05 -164.07045810040046
6.099999999999986 -4.257563394692636e-05 -168.08186567270153
6.149999999999986 -4.3599361146549834e-05 -172.123378662669
6.199999999999986 -4.462567143799734e-05 -176.17508929041045
6.249999999999986 -4.564981952756191e-05 -180.21826388726396
6.299999999999986 -4.6668357972871866e-05 -184.2392924962679
6.349999999999985 -4.767901894795218e-05 -188.22922209933267
6.399999999999985 -4.868052202343258e-05 -192.18299776391902
6.449999999999985 -4.9672471600718385e-05 -196.09905772937452
6.499999999999985 -5.065527538869621e-05 -199.9790115658678
6.549999999999985 -5.163003123445012e-05 -203.82719339996393
6.5999999999999845 -5.2598378864188476e-05 -207.65007661126398
6.649999999999984 -5.356232803804925e-05 -211.4555954147691
6.699999999999984 -5.452407644295441e-05 -215.25242593068617
6.749999999999984 -5.548582761640721e-05 -219.04926737639119
6.799999999999984 -5.6449615326557524e-05 -222.85414874671733
6.849999999999984 -5.7417139773128844e-05 -226.67378216113408
6.8999999999999835 -5.8389622683182204e-05 -230.5129908047528
6.949999999999983 -5.936769039903532e-05 -234.37424737793174
6.999999999999983 -6.035129450009337e-05 -238.25736072382458
7.049999999999983 -6.133967803942868e-05 -242.1593425357398
7.099999999999983 -6.23313922422082e-05 -246.07447327989004
7.149999999999983 -6.332436359349279e-05 -249.99456704740763
7.199999999999982 -6.431600476680067e-05 -253.90940948275997
7.249999999999982 -6.530335878077245e-05 -257.8073268914516
7.299999999999982 -6.628326652985189e-05 -261.675847624642
7.349999999999982 -6.725254445845632e-05 -265.5024035086553
7.399999999999982 -6.820815580495499e-05 -269.27500588910897
7.4499999999999815 -6.914679881039856e-05 -272.98061994413996
7.499999999999981 -7.006562012064448e-05 -276.6079810831071
7.549999999999981 -7.096272842939494e-05 -280.1496227280261
7.599999999999981 -7.1837312149969e-05 -283.60234086310555
7.649999999999981 -7.268990772343935e-05 -286.9682532728145
7.699999999999981 -7.352203681650314e-05 -290.25336725648526
7.7499999999999805 -7.433542731714753e-05 -293.4645042424709
7.79999999999998 -7.51314439400128e-05 -296.60705190821943
7.84999999999998 -7.591070568025205e-05 -299.6834539486458
7.89999999999998 -7.667292292784492e-05 -302.69256702921734
7.94999999999998 -7.741692967315207e-05 -305.62978792838675
7.99999999999998 -7.814086073030831e-05 -308.48775318750455
8.04999999999998 -7.884241449328701e-05 -311.2573764301827
8.09999999999998 -7.951938140803894e-05 -313.92993468667373
8.14999999999998 -8.016963837015384e-05 -316.49704627672503
8.199999999999982 -8.079120506528857e-05 -318.95089323267393
8.249999999999982 -8.138224867835533e-05 -321.28423989057774
8.299999999999983 -8.194126388831155e-05 -323.4911434811616
8.349999999999984 -8.246688059354984e-05 -325.566195060084
8.399999999999984 -8.295770233682336e-05 -327.50388163510905
8.449999999999985 -8.34122381428448e-05 -329.29831707173383
8.499999999999986 -8.38289009524875e-05 -330.94323591166176
8.549999999999986 -8.420602720520798e-05 -332.4320706811083
8.599999999999987 -8.454189949150046e-05 -333.75804131910684
8.649999999999988 -8.483477232657618e-05 -334.91425692791597
8.699999999999989 -8.508289934499139e-05 -335.8938231331079
8.74999999999999 -8.528455835594157e-05 -336.6899409979052
8.79999999999999 -8.543807199832197e-05 -337.2959885660911
8.84999999999999 -8.554182284800508e-05 -337.7055805031508
8.899999999999991 -8.559426185146696e-05 -337.91260139089326
8.949999999999992 -8.559390874831174e-05 -337.9112073955113
8.999999999999993 -8.55393434246746e-05 -337.6957921321849
9.049999999999994 -8.542918820635648e-05 -337.26091676117875
9.099999999999994 -8.526208276689914e-05 -336.6012109288931
9.149999999999995 -8.503665504310334e-05 -335.71125794693205
9.199999999999996 -8.475149270119102e-05 -334.58548214502696
9.249999999999996 -8.44051198577556e-05 -333.21805696903175
9.299999999999997 -8.399598285530578e-05 -331.6028488250208
9.349999999999998 -8.352244713875863e-05 -329.73340474817815
9.399999999999999 -8.298280499970348e-05 -327.60298297592533
9.45 -8.237529180374604e-05 -325.2046170109088
9.5 -8.169810744458437e-05 -322.53120031829644
9.55 -8.094944060634552e-05 -319.5755821096437
9.600000000000001 -8.012749426883958e-05 -316.33066803360055
9.650000000000002 -7.923050870827647e-05 -312.78951097910164
9.700000000000003 -7.825677451328842e-05 -308.9453624605635
9.750000000000004 -7.720462961687066e-05 -304.7916609004561
9.800000000000004 -7.607244078815863e-05 -300.321958561768
9.850000000000005 -7.485857550392108e-05 -295.5298105011118
9.900000000000006 -7.356137264247716e-05 -290.4086588729467
9.950000000000006 -7.217911876134497e-05 -284.9517392774887
10.000000000000007 -7.07100318097128e-05 -279.15201646012395
10.050000000000008 -6.914927004004829e-05 -272.9903759677508
10.100000000000009 -6.748819353393444e-05 -266.4327087696359
10.15000000000001 -6.57161474279421e-05 -259.43695115098177
10.20000000000001 -6.382339452070388e-05 -251.96466218160054
10.25000000000001 -6.180435910262392e-05 -243.99382984230564
10.300000000000011 -5.966092508171231e-05 -235.5318915038121
10.350000000000012 -5.740290009147592e-05 -226.61756615124935
10.400000000000013 -5.5045193665482745e-05 -217.3097142638658
10.450000000000014 -5.2602895424350093e-05 -207.66790727608355
10.500000000000014 -5.008581959855608e-05 -197.73089021683066
10.550000000000015 -4.749466239220971e-05 -187.50141158976245
10.600000000000016 -4.4822034595812196e-05 -176.950299965043
10.650000000000016 -4.2056208078969004e-05 -166.0312545397289
10.700000000000017 -3.918488904670196e-05 -154.69574135661114
10.750000000000018 -3.619750445284663e-05 -142.90201970250666
10.800000000000018 -3.3086769091761395e-05 -130.62132873835023
10.85000000000002 -2.984955272620305e-05 -117.84131078283296
10.90000000000002 -2.6487258962008855e-05 -104.56750704969444
10.95000000000002 -2.3005805621048493e-05 -90.82328016324259
11.000000000000021 -1.9415045356205756e-05 -76.64752683798312
11.050000000000022 -1.572750478454495e-05 -62.08970017587951
11.100000000000023 -1.1956542306025453e-05 -47.20253702614396
11.150000000000023 -8.114232970886268e-06 -32.03370777636939
11.200000000000024 -4.209456761445185e-06 -16.6182691915819
11.250000000000025 -2.468059193586226e-07 -0.9743507151667067
11.300000000000026 3.7739083689877648e-06 14.89879305914784
11.350000000000026 7.857742523276288e-06 31.021124076141856
11.400000000000027 1.2014129214750623e-05 47.42988102926359
11.450000000000028 1.625654159769785e-05 64.17825379965237
11.500000000000028 2.060107137103376e-05 81.3297698682843
11.55000000000003 2.5064049194762724e-05 98.94890009670013
11.60000000000003 2.9659471089960527e-05 117.09089856138279
11.65000000000003 3.4397083412507746e-05 135.79424233308967
11.700000000000031 3.9281271375065796e-05 155.0762435374939
11.750000000000032 4.431106523322372e-05 174.93307377711298
11.800000000000033 4.948085581777752e-05 195.34258893952196
11.850000000000033 5.478155757690696e-05 216.26892070382837
11.900000000000034 6.020201001593501e-05 237.6680092030791
11.950000000000035 6.573044849171861e-05 259.49340948777734
12.000000000000036 7.135586606320028e-05 281.70166789636164
12.050000000000036 7.706892799547319e-05 304.2559323725444
12.100000000000037 8.286234110276736e-05 327.1274105729761
12.150000000000038 8.873082551346366e-05 350.2952583999891
12.200000000000038 9.46708746394185e-05 373.74563239847345
12.250000000000039 0.00010068045121961993 397.4704897843293
12.30000000000004 0.00010675872319884552 421.4665457352025
12.35000000000004 0.00011290586447027197 445.73448675383787
12.400000000000041 0.00011912290226625158 470.27836819101356
12.450000000000042 0.00012541158978406127 495.1051113921536
12.500000000000043 0.0001317742779816286 520.2239975671416
12.550000000000043 0.00013821375655153923 545.6460399808658
12.600000000000044 0.00014473304608510266 571.3831634498392
12.650000000000045 0.00015133514444799724 597.4472030733789
12.700000000000045 0.0001580227446671924 623.8487904958167
12.750000000000046 0.00016479795341488068 650.5962425256101
12.800000000000047 0.00017166204554410427 677.6945920808372
12.850000000000048 0.00017861528899735805 705.1448969560689
12.900000000000048 0.00018565687223505708 732.9439533214415
12.950000000000049 0.0001927849501288729 761.0844769022865
13.00000000000005 0.0001999968072845788 789.5557477518796
13.05000000000005 0.00020728911934294814 818.3446418260392
13.100000000000051 0.00021465828262752585 847.4369323803649
13.150000000000052 0.00022210080138711097 876.8188187422815
13.200000000000053 0.00022961371857076722 906.4786269426148
13.250000000000053 0.00023719493947716632 936.4080874319857
13.300000000000054 0.00024484333094263865 966.6027266595378
13.350000000000055 0.0002525586228064003 997.0614780732461
13.400000000000055 0.00026034119858080694 1027.7858557192042
13.450000000000056 0.0002681918599189341 1058.779024396901
13.500000000000057 0.00027611161866613606 1090.044978711681
13.550000000000058 0.00028410153795170785 1121.5879157297722
13.600000000000058 0.000292162618720704 1153.4117870238608
13.650000000000059 0.0003002957177236606 1185.5199749094913
13.70000000000006 0.0003085014840102903 1217.9150417322237
13.75000000000006 0.0003167834968521594 1250.6111178898195
13.800000000000061 0.0003251453834415208 1283.6225229633283
13.850000000000062 0.00033358810343416754 1316.9530455219647
13.900000000000063 0.0003421095704692213 1350.5944489431263
13.950000000000063 0.0003507054467679417 1384.5296083627545
14.000000000000064 0.00035937038738662904 1418.7374227889045
14.050000000000065 0.000368099195037957 1453.197374153628
14.100000000000065 0.0003768876054107852 1487.892627631326
14.150000000000066 0.00038573264372536377 1522.8114392622733
14.200000000000067 0.0003946326150780786 1557.9471178352026
14.250000000000068 0.000403586836034935 1593.2969652608492
14.300000000000068 0.0004125952166229417 1628.8606263400807
14.350000000000069 0.00042165778798046704 1664.638224002248
14.40000000000007 0.0004307742541575737 1700.6285898838298
14.45000000000007 0.00043994362849566977 1736.8278288128333
14.500000000000071 0.00044916399514037194 1773.2283772993173
14.550000000000072 0.0004584324146833002 1809.8186310241283
14.600000000000072 0.00046774496988819344 1846.583125358369
14.650000000000073 0.0004770969251578815 1883.5031649137707
14.700000000000074 0.00048648295664276907 1920.5577319745746
14.750000000000075 0.0004958967683755158 1957.721971057992
14.800000000000075 0.0005053315600047454 1994.9690354528743
14.850000000000076 0.0005147807806999583 2032.2730635170094
14.900000000000077 0.0005242383365054367 2069.6099972775287
14.950000000000077 0.0005336986251970375 2106.957720040008
15.000000000000078 0.0005431564140236974 2144.2955737312786
15.050000000000079 0.0005526066337366724 2181.6035457594544
15.10000000000008 0.0005620441525993251 2218.861376840335
15.15000000000008 0.0005714635726158016 2256.047756540465
15.200000000000081 0.0005808590749127631 2293.13971286868
15.250000000000082 0.0005902243269919859 2330.112246124043
15.300000000000082 0.0005995524526897274 2366.938210300181
15.350000000000083 0.0006088360525196929 2403.5883933960927
15.400000000000084 0.0006180672533821423 2440.031713659841
15.450000000000085 0.0006272377666970403 2476.235449089027
15.500000000000085 0.0006363389398626392 2512.1654405811355
15.550000000000086 0.0006453617935898263 2547.7862393236287
15.600000000000087 0.0006542970445652572 2583.0611962644084
15.650000000000087 0.0006631351176430504 2617.9525102427033
15.700000000000088 0.0006718661558828639 2652.421267617801
15.750000000000089 0.0006804800427402435 2686.4275298730327
15.80000000000009 0.0006889664339848092 2719.9304596237253
15.85000000000009 0.0006973147980443269 2752.88847988921
15.900000000000091 0.0007055144651382676 2785.2594680643397
15.950000000000092 0.000713554682469109 2817.000973806015
16.000000000000092 0.0007214246702641217 2848.0704402772853
16.050000000000093 0.0007291136745288605 2878.4254124097897
16.100000000000094 0.0007366110157484598 2908.0237291687604
16.150000000000095 0.0007439061296549132 2936.823684495793
16.200000000000095 0.0007509885886918357 2964.7841120483304
16.250000000000096 0.0007578480968808365 2991.8643649329188
16.300000000000097 0.0007644744595872927 3018.024196345261
16.350000000000097 0.0007708575348013113 3043.223567235166
16.400000000000098 0.000776987174675525 3067.4224155070183
16.4500000000001 0.0007828531667976548 3090.58042417315
16.5000000000001 0.0007884451842654577 3112.656824257628
16.5500000000001 0.0007937527517766213 3133.6102609245318
16.6000000000001 0.0007987652314025083 3153.3987373149416
