# (1): time [s] (2): displacement/rotation [m/rad] (3): support force/ moment [N]/[N m]
0.05 0.0 0.0
0.1 1.338101668825651e-11 0.0004754352283108798
0.15000000000000002 7.359408921210386e-11 0.0026148403684149953
0.2 2.2958904757017865e-10 0.008157431067625977
0.25 5.33448204529711e-10 0.018953721889846748
0.3 1.0232622013121656e-09 0.03635709525194017
0.35 1.7035982688529932e-09 0.06052982749905497
0.39999999999999997 2.5261176671501338e-09 0.08975441536334836
0.44999999999999996 3.3730725223332353e-09 0.11984720908180926
0.49999999999999994 4.046253030704816e-09 0.14376570019115548
0.5499999999999999 4.263833012733343e-09 0.15149644224473915
0.6 3.6678724083337603e-09 0.13032161879013038
0.65 1.8457219705665058e-09 0.06557956446200583
0.7000000000000001 -1.6317716569487098e-09 -0.0579777866171779
0.7500000000000001 -7.154991390965741e-09 -0.254220964279315
0.8000000000000002 -1.50081197755582e-08 -0.5332471379601316
0.8500000000000002 -2.530059727410062e-08 -0.8989447903439505
0.9000000000000002 -3.7912744224442576e-08 -1.347061634117761
0.9500000000000003 -5.247070065745926e-08 -1.864314209293568
1.0000000000000002 -6.836090142852944e-08 -2.4289021929652197
1.0500000000000003 -8.47861635601202e-08 -3.012501214888
1.1000000000000003 -1.0085690169507033e-07 -3.5835037950596504
1.1500000000000004 -1.1570475923272949e-07 -4.111056723421194
1.2000000000000004 -1.2860321739822078e-07 -4.569346369539833
1.2500000000000004 -1.3908015484457113e-07 -4.941597990089408
1.3000000000000005 -1.470093836320718e-07 -5.2233280549075065
1.3500000000000005 -1.526702252535387e-07 -5.424461017479465
1.4000000000000006 -1.5676543826143488e-07 -5.569966293853535
1.4500000000000006 -1.6038897286912526e-07 -5.698712565055153
1.5000000000000007 -1.6493787100421444e-07 -5.860337535250213
1.5500000000000007 -1.719689412499056e-07 -6.110155509878685
1.6000000000000008 -1.830108930200899e-07 -6.502482414714144
1.6500000000000008 -1.9935440647479833e-07 -7.0831768590728155
1.7000000000000008 -2.2185240777346916e-07 -7.882543800551888
1.7500000000000009 -2.507666722549964e-07 -8.909884267684003
1.800000000000001 -2.8569246214207876e-07 -10.150817694175856
1.850000000000001 -3.255806354034e-07 -11.568067459512719
1.900000000000001 -3.6885952196067903e-07 -13.105791220776606
1.950000000000001 -4.1364112269038673e-07 -14.696907281915703
2.000000000000001 -4.5798185648915463e-07 -16.272359087127967
2.0500000000000007 -5.001596072473959e-07 -17.770958859369685
2.1000000000000005 -5.38926891117666e-07 -19.14838277918516
2.1500000000000004 -5.737039108999294e-07 -20.384030318184433
2.2 -6.046837217895167e-07 -21.484760838627267
2.25 -6.328333315484941e-07 -22.48493268314541
2.3 -6.597880946756588e-07 -23.44265093879008
2.3499999999999996 -6.876510486924387e-07 -24.43263773971898
2.3999999999999995 -7.187224342223167e-07 -25.536621959864043
2.4499999999999993 -7.551956518379668e-07 -26.83253638462876
2.499999999999999 -7.988622940601247e-07 -28.384037327952534
2.549999999999999 -8.50869004357904e-07 -30.231865692580644
2.5999999999999988 -9.115620936828286e-07 -32.388326106041795
2.6499999999999986 -9.804429346340894e-07 -34.83570204965367
2.6999999999999984 -1.0562403833638606e-06 -37.528829050522575
2.7499999999999982 -1.1370889013127152e-06 -40.40142344937301
2.799999999999998 -1.220785753599929e-06 -43.375220807461375
2.849999999999998 -1.3050900277748064e-06 -46.370600214998625
2.8999999999999977 -1.3880214905895613e-06 -49.31720284438565
2.9499999999999975 -1.468118679273446e-06 -52.163102081803316
2.9999999999999973 -1.5446224251943927e-06 -54.88132422859163
3.049999999999997 -1.6175620145853235e-06 -57.4729098414706
3.099999999999997 -1.6877337830250184e-06 -59.96615318211929
3.149999999999997 -1.7565734621728757e-06 -62.41206662315347
3.1999999999999966 -1.8259361688658077e-06 -64.87656353404638
3.2499999999999964 -1.8978301898487867e-06 -67.43099949930662
3.2999999999999963 -1.974143610522843e-06 -70.14245928047526
3.349999999999996 -2.0563947359752093e-06 -73.0648891316085
3.399999999999996 -2.1455344769748152e-06 -76.23207545990253
3.4499999999999957 -2.2418180104474547e-06 -79.65308484847291
3.4999999999999956 -2.3447730859750803e-06 -83.3111379680239
3.5499999999999954 -2.4532751516812877e-06 -87.16627884282049
3.599999999999995 -2.565715786121799e-06 -91.16135933274774
3.649999999999995 -2.680234650827289e-06 -95.23028054072596
3.699999999999995 -2.794977017580893e-06 -99.30714290517597
3.7499999999999947 -2.908338417795062e-06 -103.33493873325867
3.7999999999999945 -3.0191640630928153e-06 -107.27263772896205
3.8499999999999943 -3.126878211985702e-06 -111.09978346566423
3.899999999999994 -3.2315295044784607e-06 -114.81810415074263
3.949999999999994 -3.3337498194454465e-06 -118.45005080446668
3.999999999999994 -3.4346366892003475e-06 -122.03461938194904
4.049999999999994 -3.535577299298546e-06 -125.62109738477481
4.099999999999993 -3.6380375888102375e-06 -129.26157047226013
4.149999999999993 -3.7433467863654e-06 -133.00326690305639
4.199999999999993 -3.8525101408926456e-06 -136.88190375046358
4.249999999999993 -3.966077846991687e-06 -140.9170297454358
4.299999999999993 -4.0840876573625945e-06 -145.10998626314614
4.3499999999999925 -4.206086142059385e-06 -149.44466267650895
4.399999999999992 -4.331221434151296e-06 -153.8907916629319
4.449999999999992 -4.458389895800097e-06 -158.40916033449946
4.499999999999992 -4.586411918005094e-06 -162.95785650414635
4.549999999999992 -4.7142090610830815e-06 -167.4985625889153
4.599999999999992 -4.840956165304489e-06 -172.00196018845145
4.6499999999999915 -4.966187397829887e-06 -176.4514979937229
4.699999999999991 -5.089843369341921e-06 -180.84506586808504
4.749999999999991 -5.2122560548310555e-06 -185.19445907411486
4.799999999999991 -5.334077716803833e-06 -189.52285287427122
4.849999999999991 -5.456168082454934e-06 -193.86079387084982
4.899999999999991 -5.579459558963784e-06 -198.2414110278566
4.94999999999999 -5.70482246647747e-06 -202.69562732128617
4.99999999999999 -5.832950751357643e-06 -207.24809906497276
5.04999999999999 -5.964283860663943e-06 -211.9144400659983
5.09999999999999 -6.098973557716344e-06 -216.7000425625135
5.14999999999999 -6.2368967613448525e-06 -221.60053340967283
5.1999999999999895 -6.377708297751576e-06 -226.60364838367107
5.249999999999989 -6.520921830549036e-06 -231.6921076726072
5.299999999999989 -6.6660039624127e-06 -236.84695936238694
5.349999999999989 -6.812465907019004e-06 -242.05083659346948
5.399999999999989 -6.959939058499587e-06 -247.2906425870925
5.449999999999989 -7.108224706556533e-06 -252.5593170519449
5.4999999999999885 -7.257313296613371e-06 -257.85652050842276
5.549999999999988 -7.407374066484708e-06 -263.18826607353355
5.599999999999988 -7.5587198565383515e-06 -268.56566914569277
5.649999999999988 -7.711753076951675e-06 -274.003027590228
5.699999999999988 -7.86690034434295e-06 -279.51549934125086
5.749999999999988 -8.024545942910379e-06 -285.11673823761134
5.799999999999987 -8.184974753196871e-06 -290.8168662490457
5.849999999999987 -8.348332829950958e-06 -296.6210727848739
5.899999999999987 -8.514609752011684e-06 -302.5289875752464
5.949999999999987 -8.683642669270738e-06 -308.53482446203856
5.999999999999987 -8.855138709534956e-06 -314.6281775275786
6.0499999999999865 -9.028710942981415e-06 -320.7952989324469
6.099999999999986 -9.203923576045015e-06 -327.02070468032633
6.149999999999986 -9.380338560208848e-06 -333.2888306551637
6.199999999999986 -9.557550461419946e-06 -339.58527155159015
6.249999999999986 -9.7352033174433e-06 -345.8973798264172
6.299999999999986 -9.912990796155521e-06 -352.2142713229014
6.349999999999985 -1.0090643605382222e-05 -358.52637793501646
6.399999999999985 -1.026790856689436e-05 -364.8247040944933
6.449999999999985 -1.0444523824427414e-05 -371.09994589746526
6.499999999999985 -1.0620194587202972e-05 -377.3416292578218
6.549999999999985 -1.0794572986735726e-05 -383.537394207962
6.5999999999999845 -1.0967243801842198e-05 -389.6724877001343
6.649999999999984 -1.1137716793685891e-05 -395.72949126617686
6.699999999999984 -1.1305425950491227e-05 -401.68829418176904
6.749999999999984 -1.1469735258061881e-05 -407.5262984962704
6.799999999999984 -1.1629949821169653e-05 -413.21881418207187
6.849999999999984 -1.178533057604566e-05 -418.73958187787963
6.8999999999999835 -1.1935110571486605e-05 -424.0613513657964
6.949999999999983 -1.2078510876316049e-05 -429.1564467725804
6.999999999999983 -1.221475452691884e-05 -433.99726213357565
7.049999999999983 -1.2343077452589086e-05 -438.5566495766163
7.099999999999983 -1.2462735887550585e-05 -442.80818267538075
7.149999999999983 -1.2573010289317907e-05 -446.7262956710177
7.199999999999982 -1.2673206172764371e-05 -450.286313107061
7.249999999999982 -1.2762652496031778e-05 -453.4643924798736
7.299999999999982 -1.2840698318898164e-05 -456.237405508529
7.349999999999982 -1.2906708456435845e-05 -458.58278370677925
7.399999999999982 -1.2960058788956997e-05 -460.47835174272046
7.4499999999999815 -1.3000131811045952e-05 -461.90216929334724
7.499999999999981 -1.3026312926544467e-05 -462.83239940324574
7.549999999999981 -1.3037987920002897e-05 -463.24721864379774
7.599999999999981 -1.3034541943141943e-05 -463.1247811015832
7.649999999999981 -1.3015360236644657e-05 -462.44324402406556
7.699999999999981 -1.2979830643819541e-05 -461.1808571314891
7.7499999999999805 -1.2927347773020343e-05 -459.31611051005143
7.79999999999998 -1.2857318442055469e-05 -456.82792805490493
7.84999999999998 -1.2769167817932062e-05 -453.6958856187992
7.89999999999998 -1.2662345488857233e-05 -449.9004267537816
7.94999999999998 -1.253633061604289e-05 -445.4230457577894
7.99999999999998 -1.2390635353023543e-05 -440.2464091649804
8.04999999999998 -1.2224805888963784e-05 -434.35439281504824
8.09999999999998 -1.203842076562531e-05 -427.7320220540919
8.14999999999998 -1.1831086487694357e-05 -420.36531576702146
8.199999999999982 -1.1602430822655334e-05 -412.24104831821006
8.249999999999982 -1.1352094508163728e-05 -403.34645490967824
8.299999999999983 -1.1079722299534498e-05 -393.66891349320093
8.349999999999984 -1.078495437070192e-05 -383.1956392414593
8.399999999999984 -1.0467419013358337e-05 -371.9134251442364
8.449999999999985 -1.012672740002688e-05 -359.808455937375
8.499999999999986 -9.762470844180618e-06 -346.86621075323364
8.549999999999986 -9.374220576233169e-06 -333.0714551615039
8.599999999999987 -8.961529621669008e-06 -318.40830790026155
8.649999999999988 -8.523936012931393e-06 -302.8603549961943
8.699999999999989 -8.060966366431986e-06 -286.4107768578135
8.74999999999999 -7.572138843166003e-06 -269.0424534678151
8.79999999999999 -7.056964671713663e-06 -250.73801849619824
8.84999999999999 -6.514947714964317e-06 -231.47984390572398
8.899999999999991 -5.945581933011899e-06 -211.2499498071298
8.949999999999992 -5.348346978615438e-06 -190.02984796330526
8.999999999999993 -4.722702477415091e-06 -167.80033856207376
9.049999999999994 -4.0680817478868545e-06 -144.5412870825674
9.099999999999994 -3.3838857666478084e-06 -120.23140987904705
9.149999999999995 -2.6694780304718454e-06 -94.8480916253626
9.199999999999996 -1.9241803674505887e-06 -68.36723648308825
9.249999999999996 -1.1472675957905819e-06 -40.76307832551096
9.299999999999997 -3.379655271365332e-07 -12.008109794555567
9.349999999999998 5.045482192495623e-07 17.9268887709622
9.399999999999999 1.3811400736452657e-06 49.072702137732705
9.45 2.292711622300175e-06 81.46136418437712
9.5 3.2401879904774278e-06 115.12574514422246
9.55 4.224506747838162e-06 150.09915740722278
9.600000000000001 5.246609580422033e-06 186.4150596206312
9.650000000000002 6.307436715583888e-06 224.10685860378968
9.700000000000003 7.407923007594818e-06 263.2077702672802
9.750000000000004 8.548996310240518e-06 303.7507617904074
9.800000000000004 9.731579903046983e-06 345.7686378263949
9.850000000000005 1.0956596122942289e-05 389.29416953741935
9.900000000000006 1.2224963464017711e-05 434.3599915474529
9.950000000000006 1.3537577906267748e-05 480.9979385416448
10.000000000000007 1.4895275135539745e-05 529.2377029193758
10.050000000000008 1.6300652208434883e-05 579.1715595971853
10.100000000000009 1.7756927097174344e-05 630.9138449811412
10.15000000000001 1.9264948889680227e-05 684.4947276540582
10.20000000000001 2.0821178966278144e-05 739.7884784212126
10.25000000000001 2.2418186351910256e-05 796.5310704597175
10.300000000000011 2.4047592484115797e-05 854.4248086205976
10.350000000000012 2.570366901796112e-05 913.2661615097278
10.400000000000013 2.7385083993226612e-05 973.007803813504
10.450000000000014 2.9094082547527095e-05 1033.72950656423
10.500000000000014 3.083373111918161e-05 1095.5402220811707
10.550000000000015 3.260469958760472e-05 1158.4637515656718
10.600000000000016 3.440305125372307e-05 1222.3602218327328
10.650000000000016 3.6219831002754944e-05 1286.911452497411
10.700000000000017 3.804252292848401e-05 1351.672746204631
10.750000000000018 3.985779407115541e-05 1416.1703752165995
10.800000000000018 4.165453689019844e-05 1480.0096822206297
10.85000000000002 4.342640943139805e-05 1542.9653339314846
10.90000000000002 4.51730870412539e-05 1605.0257952233478
10.95000000000002 4.6899805081373664e-05 1666.3770815088908
11.000000000000021 4.861546708780636e-05 1727.3355405509826
11.050000000000022 5.032980837739942e-05 1788.2470737632354
11.100000000000023 5.205044541121223e-05 1849.382298392982
11.150000000000023 5.378078799744965e-05 1910.8623668892583
11.200000000000024 5.55196920579515e-05 1972.6466294962227
11.250000000000025 5.7262417794000644e-05 2034.5666784360708
11.300000000000026 5.9002196497435594e-05 2096.3820176101062
11.350000000000026 6.073201334449101e-05 2157.843406290502
11.400000000000027 6.244621720496134e-05 2218.7500565668865
11.450000000000028 6.414164880158558e-05 2278.9897174989255
11.500000000000028 6.581814583005205e-05 2338.5566223209626
11.55000000000003 6.747846086016187e-05 2397.5485714230826
11.60000000000003 6.912783126136645e-05 2456.1516515578014
11.65000000000003 7.077335199240312e-05 2514.617950694645
11.700000000000031 7.24232689980279e-05 2573.240451999173
11.750000000000032 7.408630513322492e-05 2632.3290835319726
11.800000000000033 7.577085639563608e-05 2692.1821599240466
11.850000000000033 7.748403338198724e-05 2753.052324771658
11.900000000000034 7.923114060278708e-05 2815.1280503877497
11.950000000000035 8.101562640324007e-05 2878.531858463146
12.000000000000036 8.283936782764532e-05 2943.3304414626787
12.050000000000036 8.470330465083934e-05 3009.557190127452
12.100000000000037 8.660831158430828e-05 3077.2431834602667
12.150000000000038 8.855599425843616e-05 3146.4454704332597
12.200000000000038 9.054920400686831e-05 3217.2653605727724
12.250000000000039 9.259219880599731e-05 3289.8541422319627
12.30000000000004 9.469046775899379e-05 3364.4068464073503
12.35000000000004 9.685028936994891e-05 3441.1465519647327
12.400000000000041 9.907815656784566e-05 3520.303956409788
12.450000000000042 0.00010138022628534137 3602.097819105265
12.500000000000043 0.00010376188869420854 3686.719655958137
12.550000000000043 0.00010622743485815677 3774.3219309329897
12.600000000000044 0.00010877981058446409 3865.009310258737
12.650000000000045 0.00011142059649577171 3958.837954368012
12.700000000000045 0.00011415021388340572 4055.8228319842297
12.750000000000046 0.00011696813297629928 4155.945120036319
12.800000000000047 0.0001198729990870968 4259.156685702449
12.850000000000048 0.00012286269870477246 4365.382434718817
12.900000000000048 0.00012593442552072317 4474.522657324762
12.950000000000049 0.00012908474306064523 4586.4552536094
13.00000000000005 0.00013230961142076178 4701.036683465184
13.05000000000005 0.00013560436195779755 4818.1010673081355
13.100000000000051 0.0001389636255255503 4937.457636281897
13.150000000000052 0.00014238123107958496 5058.887129624133
13.200000000000053 0.00014585009677328648 5182.137925246574
13.250000000000053 0.00014936214321694424 5306.922957780331
13.300000000000054 0.00015290825956229925 5432.918513540338
13.350000000000055 0.00015647833328652773 5559.765288767429
13.400000000000055 0.0001600613299043735 5687.071221846314
13.450000000000056 0.00016364539888362792 5814.41525654356
13.500000000000057 0.00016721798757815464 5941.351390113578
13.550000000000058 0.0001707659560622997 6067.412753431338
13.600000000000058 0.00017427569236287165 6192.115705250975
13.650000000000059 0.0001777332285348353 6314.963956442032
13.70000000000006 0.00018112435696821094 6435.452702440565
13.75000000000006 0.00018443474560692508 6553.072717041255
13.800000000000061 0.00018765005167241565 6667.314393062588
13.850000000000062 0.00019075603554307696 6777.671788549118
13.900000000000063 0.00019373868398010193 6883.647005056588
13.950000000000063 0.00019658439847635228 6984.756879795758
14.000000000000064 0.0001992802205116362 7080.540989082128
14.050000000000065 0.00020181392692278507 7170.565036889685
14.100000000000065 0.0002041740053554495 7254.419982639072
14.150000000000066 0.00020634958956212434 7331.71974229917
14.200000000000067 0.00020833040827208544 7402.099371706503
14.250000000000068 0.00021010677606796206 7465.214742404597
14.300000000000068 0.0002116696471034339 7520.744450264698
14.350000000000069 0.00021301071168325044 7568.393247029466
14.40000000000007 0.00021412249595932978 7607.895582572783
14.45000000000007 0.00021499845545049006 7639.018927709656
14.500000000000071 0.00021563306285505296 7661.566894228593
14.550000000000072 0.00021602188919806 7675.382118098918
14.600000000000072 0.00021616167194468138 7680.3486795794215
14.650000000000073 0.0002160503659128967 7676.39391217521
14.700000000000074 0.00021568717030408087 7663.489363049999
14.750000000000075 0.00021507252692532224 7641.650729864052
14.800000000000075 0.00021420809352980512 7610.936913542612
14.850000000000076 0.00021309669973040594 7571.448451860595
14.900000000000077 0.00021174228316755948 7523.3252514501155
14.950000000000077 0.00021014980274698303 7466.7435050868635
15.000000000000078 0.00020832515034205088 7401.912554424628
15.050000000000079 0.00020627509458792526 7329.072892968399
15.10000000000008 0.00020400726256201155 7248.495515170397
15.15000000000008 0.00020153014372864292 7160.482056586987
15.200000000000081 0.00019885309687742297 7065.3650404019845
15.250000000000082 0.00019598634490700797 6963.507692091443
15.300000000000082 0.00019294094826865306 6855.302995857549
15.350000000000083 0.0001897287536411089 6741.171871018153
15.400000000000084 0.0001863623194181723 6621.560524536531
15.450000000000085 0.00018285482310861545 6496.937160887546
15.500000000000085 0.00017921995449723938 6367.788186008358
15.550000000000086 0.00017547179154731883 6234.613798040829
15.600000000000087 0.0001716246550258322 6097.922822082227
15.650000000000087 0.00016769294982543967 5958.2270722637395
15.700000000000088 0.0001636910129124108 5816.035949252777
15.750000000000089 0.0001596329880190104 5671.851988001292
15.80000000000009 0.00015553273714388074 5526.167713303391
15.85000000000009 0.00015140378598428188 5379.463700971415
15.900000000000091 0.00014725929062064515 5232.207394118938
15.950000000000092 0.00014311200873608698 5084.852080573522
16.000000000000092 0.00013897426000744332 4937.835485547358
16.050000000000093 0.00013485786638957477 4791.577649904244
16.100000000000094 0.00013077407713503366 4646.478266065179
16.150000000000095 0.00012673349303843708 4502.913986367311
16.200000000000095 0.0001227459978740782 4361.235987002787
16.250000000000096 0.00011882069772754568 4221.767812436256
16.300000000000097 0.00011496586723496611 4084.803465254195
16.350000000000097 0.00011118890255404319 3950.6057351988497
16.400000000000098 0.00010749628179779884 3819.4047933562706
16.4500000000001 0.00010389353402085934 3691.3970902212013
16.5000000000001 0.00010038521773366241 3566.744592294485
16.5500000000001 9.69749094164515e-05 3445.574373978666
16.6000000000001 9.366520187676027e-05 3327.978559218467
16.6500000000001 9.045771178412053e-05 3214.014589213303
