# (1): time [s] (2): displacement/rotation [m/rad] (3): support force/ moment [N]/[N m]
0.05 0.0 0.0
0.1 2.5582548460720293e-09 4.039834126064108
0.15000000000000002 9.52815756131784e-09 15.046263328232861
0.2 1.7398449690016156e-08 27.474530501234433
0.25 2.7903668535515752e-08 44.06370716554638
0.3 4.5080290092522875e-08 71.1879407199278
0.35 7.218153316524902e-08 113.98450838481907
0.39999999999999997 1.0986550579299741e-07 173.49265272039608
0.44999999999999996 1.5681452285890422e-07 247.63156879407498
0.49999999999999994 2.1192574366773337e-07 334.6597203851514
0.5499999999999999 2.7530390219730717e-07 434.7424967621787
0.6 3.471339443418987e-07 548.1719527750897
0.65 4.264853443738582e-07 673.4786610931745
0.7000000000000001 5.114764041152735e-07 807.6911630575139
0.7500000000000001 6.003412110491609e-07 948.0208413961781
0.8000000000000002 6.920719613203084e-07 1092.8762360507935
0.8500000000000002 7.862614040425688e-07 1241.6142421992374
0.9000000000000002 8.828087896001288e-07 1394.0757624252478
0.9500000000000003 9.81672529520258e-07 1550.1951228450657
1.0000000000000002 1.0825608743976955e-06 1709.511611264422
1.0500000000000003 1.1847074181302231e-06 1870.8149676770015
1.1000000000000003 1.286930396643677e-06 2032.2390250576168
1.1500000000000004 1.3878959591155126e-06 2191.6774506144957
1.2000000000000004 1.486365757248494e-06 2347.17472309892
1.2500000000000004 1.581330201681303e-06 2497.1365628942895
1.3000000000000005 1.6720053284362017e-06 2640.324983708607
1.3500000000000005 1.7577462123565556e-06 2775.7215605555853
1.4000000000000006 1.8379317763793993e-06 2902.345527848976
1.4500000000000006 1.9118719861885056e-06 3019.107227072884
1.5000000000000007 1.978777308949735e-06 3124.7598779497694
1.5500000000000007 2.0377968481476143e-06 3217.959798560594
1.6000000000000008 2.0880930752499306e-06 3297.3844168593478
1.6500000000000008 2.1289096577231593e-06 3361.8393803817808
1.7000000000000008 2.159607207561246e-06 3410.3150080593236
1.7500000000000009 2.1796667497649517e-06 3441.9917674221283
1.800000000000001 2.188673420245362e-06 3456.2145313601477
1.850000000000001 2.1862933724265876e-06 3452.4561104918307
1.900000000000001 2.1722533534182945e-06 3430.2850011485302
1.950000000000001 2.1463293851008247e-06 3389.347511260562
2.000000000000001 2.108347156415104e-06 3329.3683798365983
2.0500000000000007 2.058191579064186e-06 3250.165866722711
2.1000000000000005 1.9958201988998957e-06 3151.6729310152714
2.1500000000000004 1.9212770242217784e-06 3033.95906783538
2.2 1.8347054561903839e-06 2897.250727219083
2.25 1.7363552255588572e-06 2741.942268164832
2.3 1.6265702647790108e-06 2568.576807031041
2.3499999999999996 1.5057667448337978e-06 2377.811534692103
2.3999999999999995 1.374417901924514e-06 2170.3937558032294
2.4499999999999993 1.233048419512919e-06 1947.152017276957
2.499999999999999 1.0822319071395133e-06 1708.992126992555
2.549999999999999 9.225905841781668e-07 1456.8966544013497
2.5999999999999988 7.547955547867494e-07 1191.9253647113576
2.6499999999999986 5.795615956661906e-07 915.2069880463048
2.6999999999999984 3.976427053480729e-07 627.932191162307
2.7499999999999982 2.0982506887056238e-07 331.3424677094048
2.799999999999998 1.6927425150086472e-08 26.730718361664657
2.849999999999998 -1.801984766127184e-07 -284.5580284554373
2.8999999999999977 -3.8066928842202653e-07 -601.128845499134
2.9499999999999975 -5.83559226106935e-07 -921.5197930050088
2.9999999999999973 -7.879015064971123e-07 -1244.2041881838134
3.049999999999997 -9.92706902231148e-07 -1567.6199058003713
3.099999999999997 -1.1969832388702223e-06 -1890.2001667813981
3.149999999999997 -1.399748295909982e-06 -2210.3939106768776
3.1999999999999966 -1.600035717178845e-06 -2526.675128986959
3.2499999999999964 -1.7968920188295622e-06 -2837.5381403716137
3.2999999999999963 -1.9893785423414524e-06 -3141.5006747081484
3.349999999999996 -2.1765810893494608e-06 -3437.1190878034085
3.399999999999996 -2.3576118590459744e-06 -3722.9914208160976
3.4499999999999957 -2.531604625215391e-06 -3997.749784135039
3.4999999999999956 -2.6977116316359544e-06 -4260.055454794267
3.5499999999999954 -2.8551044861169506e-06 -4508.600288279971
3.599999999999995 -3.002982511841218e-06 -4742.119906441993
3.649999999999995 -3.140590291074029e-06 -4959.421401408438
3.699999999999995 -3.267222981492752e-06 -5159.391730796985
3.7499999999999947 -3.3822131327738457e-06 -5340.976899303515
3.7999999999999945 -3.4849150732152614e-06 -5503.157303044477
3.8499999999999943 -3.5746984882877183e-06 -5644.9375892115095
3.899999999999994 -3.650951111855598e-06 -5765.350905877134
3.949999999999994 -3.7130862404121926e-06 -5863.470767999442
3.999999999999994 -3.7605509936341685e-06 -5938.424101966839
4.049999999999994 -3.7928330708312547e-06 -5989.401914955746
4.099999999999993 -3.8094655494456926e-06 -6015.666872417199
4.149999999999993 -3.810030235940044e-06 -6016.558589586781
4.199999999999993 -3.7941602546248685e-06 -5991.497719597427
4.249999999999993 -3.7615423671596115e-06 -5939.989616288412
4.299999999999993 -3.711919268878469e-06 -5861.627960417812
4.3499999999999925 -3.6450918996723383e-06 -5756.098408861004
4.399999999999992 -3.5610224202840515e-06 -5623.341208258135
4.449999999999992 -3.4596674550086155e-06 -5463.287862441383
4.499999999999992 -3.340900049824054e-06 -5275.737893654901
4.549999999999992 -3.204658917527884e-06 -5060.594521027753
4.599999999999992 -3.0510380799855303e-06 -4818.006217938626
4.6499999999999915 -2.880255899060566e-06 -4548.317807621079
4.699999999999991 -2.692613034623358e-06 -4252.0040731118825
4.749999999999991 -2.4884643641677768e-06 -3929.625414487091
4.799999999999991 -2.268211046750971e-06 -3581.815316738061
4.849999999999991 -2.0323055466169805e-06 -3209.288282759882
4.899999999999991 -1.7812598254253885e-06 -2812.852770000332
4.94999999999999 -1.5156508958177428e-06 -2393.4199603004513
4.99999999999999 -1.2361221836697672e-06 -1952.0059110770112
5.04999999999999 -9.433815484126526e-07 -1489.7284291392014
5.09999999999999 -6.381975383931147e-07 -1007.8011573902526
5.14999999999999 -3.213952205925031e-07 -507.52698938381656
5.1999999999999895 6.147663089777366e-09 9.708000429965006
5.249999999999989 3.4350402658785317e-07 542.4398164165426
5.299999999999989 6.897004406579413e-07 1089.1312807281417
5.349999999999989 1.0437201265191116e-06 1648.1767606717701
5.399999999999989 1.4045062291965173e-06 2217.907337765658
5.449999999999989 1.7709655357919266e-06 2796.596679396731
5.4999999999999885 2.1419726741403175e-06 3382.4676690733468
5.549999999999988 2.5163747373837948e-06 3973.699709259708
5.599999999999988 2.8929962448727984e-06 4568.436555317048
5.649999999999988 3.2706443749916455e-06 5164.794578850511
5.699999999999988 3.6481146822257325e-06 5760.871795739807
5.749999999999988 4.024204861397167e-06 6354.769601748906
5.799999999999987 4.397729724701166e-06 6944.616423313939
5.849999999999987 4.767516987548608e-06 7528.561062812483
5.899999999999987 5.132398383356729e-06 8104.758667603435
5.949999999999987 5.491207308229351e-06 8671.36701065511
5.999999999999987 5.842784232163997e-06 9226.555035581006
6.0499999999999865 6.185986482714628e-06 9768.518306380729
6.099999999999986 6.5196983668883925e-06 10295.494991298683
6.149999999999986 6.842839215231468e-06 10805.778565535255
6.199999999999986 7.154369036967327e-06 11297.726741483226
6.249999999999986 7.453292629496768e-06 11769.767958190107
6.299999999999986 7.738663072941746e-06 12220.406899720567
6.349999999999985 8.009585184191718e-06 12648.22994956779
6.399999999999985 8.26521915455322e-06 13051.910934999441
6.449999999999985 8.504784334687529e-06 13430.217103991656
6.499999999999985 8.727562866120774e-06 13782.01485987994
6.549999999999985 8.932902834902039e-06 14106.27474141644
6.5999999999999845 9.120220813553053e-06 14402.075436855994
6.649999999999984 9.289003855643766e-06 14668.606933663634
6.699999999999984 9.438811089569498e-06 14905.173035306583
6.749999999999984 9.569275025809988e-06 15111.193425594996
6.799999999999984 9.680102610827672e-06 15286.205332931419
6.849999999999984 9.77107599551693e-06 15429.864743797194
6.8999999999999835 9.842052965621148e-06 15541.947082439847
6.949999999999983 9.892966998203416e-06 15622.347300048032
6.999999999999983 9.923826937645819e-06 15671.079363110126
7.049999999999983 9.934716306523272e-06 15688.275165189805
7.099999999999983 9.92579227465741e-06 15674.1828989212
7.149999999999983 9.897284308109633e-06 15629.164922584234
7.199999999999982 9.849492515753972e-06 15553.695149117133
7.249999999999982 9.782785708865327e-06 15448.355981941007
7.299999999999982 9.697599191854047e-06 15313.834826227727
7.349999999999982 9.594432316173032e-06 15150.92022618485
7.399999999999982 9.473845852925819e-06 14960.49771604461
7.4499999999999815 9.336459150479026e-06 14743.545331545407
7.499999999999981 9.182946888032785e-06 14501.128483375709
7.549999999999981 9.014035487152053e-06 14234.394290491447
7.599999999999981 8.830499372754906e-06 13944.56567570538
7.649999999999981 8.633157184962505e-06 13632.935383680342
7.699999999999981 8.422867951831938e-06 13300.8599371512
7.7499999999999805 8.200527203631905e-06 12949.753500834951
7.79999999999998 7.967063012680121e-06 12581.081627792633
7.84999999999998 7.72343193963279e-06 12196.354858066225
7.89999999999998 7.470614843804976e-06 11797.12210260177
7.94999999999998 7.209612560497798e-06 11384.963817158108
7.99999999999998 6.941441545261964e-06 10961.485124003517
8.04999999999998 6.667129611709941e-06 10528.309081338497
8.09999999999998 6.387711849523032e-06 10087.070237270904
8.14999999999998 6.104226702514955e-06 9639.408436542204
8.199999999999982 5.8177119456512165e-06 9186.962467691099
8.249999999999982 5.529200256911583e-06 8731.363070419035
8.299999999999983 5.2397144937650655e-06 8274.225476498461
8.349999999999984 4.950263083880712e-06 7817.142131075079
8.399999999999984 4.661835832750137e-06 7361.676072330691
8.449999999999985 4.375400188951243e-06 6909.355033824063
8.499999999999986 4.091897838079562e-06 6461.666065842892
8.549999999999986 3.8122414721652538e-06 6020.050433871609
8.599999999999987 3.537311643547991e-06 5585.89865042974
8.649999999999988 3.267953686445404e-06 5160.54561380764
8.699999999999989 3.004974735734797e-06 4745.265900315277
8.74999999999999 2.749140898067012e-06 4341.269297084309
8.79999999999999 2.5011746628088585e-06 3949.6967135922396
8.84999999999999 2.2617526427975197e-06 3571.6166140047817
8.899999999999991 2.0315036434446874e-06 3208.02196802732
8.949999999999992 1.8110069311067727e-06 2859.8275164247575
8.999999999999993 1.6007905236241672e-06 2527.8670715493145
9.049999999999994 1.4013294155276248e-06 2212.8907146987876
9.099999999999994 1.2130438293970703e-06 1915.562034773058
9.149999999999995 1.0362977063221242e-06 1636.455744504903
9.199999999999996 8.713976201630241e-07 1376.0559659295639
9.249999999999996 7.185921753931749e-07 1134.7552794958167
9.299999999999997 5.78071873362266e-07 912.8545128771503
9.349999999999998 4.499695343370666e-07 710.5634074318785
9.399999999999999 3.3436127051922065e-07 528.0021547312526
9.45 2.3129742368250364e-07 365.2502513179948
9.5 1.4073929736113074e-07 222.24659018266235
9.55 6.256672313467707e-08 98.80140896187969
9.600000000000001 -3.375462013670967e-09 -5.330315959333907
9.650000000000002 -5.7286812801762446e-08 -90.46370876042508
9.700000000000003 -9.941295351173396e-08 -156.98664376075217
9.750000000000004 -1.3004733733743697e-07 -205.3625236696832
9.800000000000004 -1.4953240176589772e-07 -236.13210409186655
9.850000000000005 -1.5825879048212456e-07 -249.91226480855278
9.900000000000006 -1.56662969555861e-07 -247.3922454106006
9.950000000000006 -1.4522392744442125e-07 -229.32843415183063
10.000000000000007 -1.2445969692321668e-07 -196.5388756018603
10.050000000000008 -9.492416491390666e-08 -149.898232928644
10.100000000000009 -5.7204258811600715e-08 -90.33334472448465
10.15000000000001 -1.1917344591813743e-08 -18.81911626122614
10.20000000000001 4.029139102090921e-08 63.62561442335644
10.25000000000001 9.875172419453517e-08 155.94247227608747
10.300000000000011 1.6277137730082713e-07 257.03825628473913
10.350000000000012 2.316391580583393e-07 365.789896613955
10.400000000000013 3.0462818759141326e-07 481.04955215169383
10.450000000000014 3.8099916162162484e-07 601.649760376343
10.500000000000014 4.6000360842838697e-07 726.4085821218869
10.550000000000015 5.408871218093953e-07 854.1347068644101
10.600000000000016 6.228925573188778e-07 983.6325000192322
10.650000000000016 7.052631894406271e-07 1113.706988548725
10.700000000000017 7.872458364185364e-07 1243.1687954969054
10.750000000000018 8.680939636388433e-07 1370.839040654245
10.800000000000018 9.470707615396473e-07 1495.5542009975602
10.85000000000002 1.0234521737815197e-06 1616.1708925853688
10.90000000000002 1.096529842395719e-06 1731.570521349537
10.95000000000002 1.1656139493087158e-06 1840.6637702509515
11.000000000000021 1.230035928434129e-06 1942.3948820434418
11.050000000000022 1.2891510157787949e-06 2035.7456862398733
11.100000000000023 1.3423406274563732e-06 2119.7393543207154
11.150000000000023 1.3890145733873903e-06 2193.443895469031
11.200000000000024 1.428613125788329e-06 2255.9754229975224
11.250000000000025 1.4606089468849073e-06 2306.5011984713233
11.300000000000026 1.4845088631938871e-06 2344.2424335415276
11.350000000000026 1.4998554821540864e-06 2368.476842826555
11.400000000000027 1.506228632852899e-06 2378.5409190162845
11.450000000000028 1.5032466151104733e-06 2373.8319053467208
11.500000000000028 1.4905673178006182e-06 2353.80956158159
11.55000000000003 1.467889288632975e-06 2317.9978533446297
11.60000000000003 1.4349527566229112e-06 2265.986566739326
11.65000000000003 1.3915406204882456e-06 2197.4328691624646
11.700000000000031 1.3374794231101606e-06 2112.0628481111194
11.750000000000032 1.2726402668462467e-06 2009.67295658708
11.800000000000033 1.196939584219665e-06 1890.1312301203952
11.850000000000033 1.1103397046050166e-06 1753.3781816438286
11.900000000000034 1.0128491711215315e-06 1599.427301910524
11.950000000000035 9.045228156821662e-07 1428.3651780067912
12.000000000000036 7.854617082710847e-07 1240.351413254314
12.050000000000036 6.558127989844889e-07 1035.6180619436866
12.100000000000037 5.157681163337965e-07 814.4683633455368
12.150000000000038 3.6556370781144433e-07 577.2750687191
12.200000000000038 2.0547851139740955e-07 324.47865926674604
12.250000000000039 3.583338882094329e-08 56.58581952210049
12.30000000000004 -1.4300960003143388e-07 -225.83170845892295
12.35000000000004 -3.306481752164509e-07 -522.1386696525518
12.400000000000041 -5.266412824927853e-07 -831.638579117782
12.450000000000042 -7.305108237635901e-07 -1153.5764546016865
12.500000000000043 -9.417434186627407e-07 -1487.1415983249155
12.550000000000043 -1.1597920177406749e-06 -1831.4701444226673
12.600000000000044 -1.384077296625023e-06 -2185.64726051491
12.650000000000045 -1.613989119018074e-06 -2548.7094579793784
12.700000000000045 -1.848888332983468e-06 -2919.647428533824
12.750000000000046 -2.0881089860332695e-06 -3297.4095421613106
12.800000000000047 -2.330960907394598e-06 -3680.9059248622343
12.850000000000048 -2.5767325285638157e-06 -4069.012912694967
12.900000000000048 -2.8246932964005916e-06 -4460.576862381261
12.950000000000049 -3.0740961254876358e-06 -4854.418023917521
13.00000000000005 -3.324180365640713e-06 -5249.335226678786
13.05000000000005 -3.5741750044761392e-06 -5644.110936710604
13.100000000000051 -3.823301838047964e-06 -6037.5162635985935
13.150000000000052 -4.070778663149376e-06 -6428.316001548757
13.200000000000053 -4.315822346131726e-06 -6815.273475472236
13.250000000000053 -4.557651535325776e-06 -7197.154824269272
13.300000000000054 -4.795489297192262e-06 -7572.733163671304
13.350000000000055 -5.028566044273622e-06 -7940.79320987703
13.400000000000055 -5.256122707255128e-06 -8300.136288670546
13.450000000000056 -5.477413875581079e-06 -8649.58529488367
13.500000000000057 -5.691710808947264e-06 -8987.989447954205
13.550000000000058 -5.898304742271455e-06 -9314.229510926172
13.600000000000058 -6.096510357323688e-06 -9627.223272628595
13.650000000000059 -6.285669545634661e-06 -9925.931489822271
13.70000000000006 -6.465154926521408e-06 -10209.363442643236
13.75000000000006 -6.634372521378088e-06 -10476.581157673514
13.800000000000061 -6.792763723696093e-06 -10726.702518872173
13.850000000000062 -6.939806140629052e-06 -10958.90259652151
13.900000000000063 -7.075013273977277e-06 -11172.413143457881
13.950000000000063 -7.197934757369806e-06 -11366.522969614574
14.000000000000064 -7.308158216419587e-06 -11540.580879461137
14.050000000000065 -7.405312121937951e-06 -11694.000177619067
14.100000000000065 -7.489068561426398e-06 -11826.263045426227
14.150000000000066 -7.559145312244532e-06 -11936.923814752417
14.200000000000067 -7.615307649122539e-06 -12025.611822308681
14.250000000000068 -7.657369467211282e-06 -12092.033183096917
14.300000000000068 -7.685192859186812e-06 -12135.970122600105
14.350000000000069 -7.698687285289822e-06 -12157.279666161136
14.40000000000007 -7.697808715868845e-06 -12155.892284941305
14.45000000000007 -7.682559960763774e-06 -12131.812416061925
14.500000000000071 -7.652992416416551e-06 -12085.121221530922
14.550000000000072 -7.6092083397290165e-06 -12015.980178975255
14.600000000000072 -7.551362544364954e-06 -11924.633760333709
14.650000000000073 -7.479662882600683e-06 -11811.410192764864
14.700000000000074 -7.394369515137618e-06 -11676.720305581313
14.750000000000075 -7.295793273390774e-06 -11521.054944079313
14.800000000000075 -7.184293465429026e-06 -11344.981504818532
14.850000000000076 -7.060275407705583e-06 -11149.140037887037
14.900000000000077 -6.92418784653151e-06 -10934.239175055493
14.950000000000077 -6.776520336821742e-06 -10701.051990458784
15.000000000000078 -6.617800600476735e-06 -10450.411829119515
15.050000000000079 -6.448591885635909e-06 -10183.208136848205
15.10000000000008 -6.269490408237807e-06 -9900.38242011702
15.15000000000008 -6.081122904396235e-06 -9602.924380927101
15.200000000000081 -5.88414427283223e-06 -9291.868193886354
15.250000000000082 -5.679235292868376e-06 -8968.288902610517
15.300000000000082 -5.467100629702123e-06 -8633.299269777035
15.350000000000083 -5.2484669815174365e-06 -8288.046851161067
15.400000000000084 -5.024081044162432e-06 -7933.710781583224
15.450000000000085 -4.794707511256485e-06 -7571.498616805312
15.500000000000085 -4.56112683227099e-06 -7202.642793233363
15.550000000000086 -4.324131552944349e-06 -6828.394848932625
15.600000000000087 -4.084522823379613e-06 -6450.019909436377
15.650000000000087 -3.843107305105146e-06 -6068.791803571905
15.700000000000088 -3.6006938170597997e-06 -5685.987767012582
15.750000000000089 -3.3580896929447754e-06 -5302.88269003849
15.80000000000009 -3.1160970821130763e-06 -4920.743276135187
15.85000000000009 -2.875509425026244e-06 -4540.822476258071
15.900000000000091 -2.637108191814133e-06 -4164.35433857241
15.950000000000092 -2.40165992877999e-06 -3792.5493444811104
16.000000000000092 -2.1699136560344316e-06 -3426.5902991330117
16.050000000000093 -1.9425985809535107e-06 -3067.6287206605934
16.100000000000094 -1.7204090212994665e-06 -2716.7610317265676
16.150000000000095 -1.5040337572878896e-06 -2375.0749104504825
16.200000000000095 -1.2941311271071028e-06 -2043.6099628292786
16.250000000000096 -1.0913930420685656e-06 -1723.4588114109147
16.300000000000097 -8.964175464567053e-07 -1415.5658498756513
16.350000000000097 -7.097235915918753e-07 -1120.7505733011387
16.400000000000098 -5.317764785309454e-07 -839.7477556647709
16.4500000000001 -3.630446526289349e-07 -573.2971362205589
16.5000000000001 -2.0401458785792362e-07 -322.1669238734391
16.5500000000001 -5.516752799899134e-08 -87.11706834177043
16.6000000000001 8.305362109962678e-08 131.1530214930055
16.6500000000001 2.1026540953669163e-07 332.03782581763005
16.700000000000102 3.2614646607884065e-07 515.0298555218346
16.750000000000103 4.304276355342632e-07 679.704077763112
