# (1): time [s] (2): displacement/rotation [m/rad] (3): support force/ moment [N]/[N m]
0.05 0.0 0.0
0.1 7.613317747722552e-06 4091.3966503473853
0.15000000000000002 3.7904127904098386e-05 20369.676805825933
0.2 8.833764787658905e-05 47472.64840351104
0.25 0.00014371518707605337 77232.53573422779
0.3 0.0001917760316195452 103060.43165213172
0.35 0.0002275184939418294 122268.42946153702
0.39999999999999997 0.0002520062008218451 135428.12215051684
0.44999999999999996 0.00026813371370714047 144095.04692415713
0.49999999999999994 0.00027830979875041484 149563.674615699
0.5499999999999999 0.00028358703739593376 152399.66245080793
0.6 0.00028370710760168257 152464.1881745312
0.65 0.00027771905228707956 149246.20749014558
0.7000000000000001 0.0002647547452244685 142279.1893979467
0.7500000000000001 0.00024459113502771433 131443.2660920281
0.8000000000000002 0.00021782718367826674 117060.31971704635
0.8500000000000002 0.0001857282225292806 99810.33929111724
0.9000000000000002 0.00014989169957444387 80551.79330157458
0.9500000000000003 0.00011189968000772349 60134.88351980295
1.0000000000000002 7.309126635578614e-05 39279.243589585945
1.0500000000000003 3.4514262231289324e-05 18547.96313007564
1.1000000000000003 -2.9804426366573598e-06 -1601.6897526469609
1.1500000000000004 -3.8600225696727295e-05 -20743.759731489725
1.2000000000000004 -7.15190180376302e-05 -38434.317406865965
1.2500000000000004 -0.00010087156020805656 -54208.3723845644
1.3000000000000005 -0.00012581789806882638 -67614.53334409084
1.3500000000000005 -0.00014563602392731953 -78264.79338057194
1.4000000000000006 -0.00015980041680164255 -85876.73753954854
1.4500000000000006 -0.00016802115704797117 -90294.56301613084
1.5000000000000007 -0.0001702407288959125 -91487.36083763107
1.5500000000000007 -0.00016660279033367116 -89532.33280111226
1.6000000000000008 -0.00015741302958420403 -84593.75574525366
1.6500000000000008 -0.00014310728737988474 -76905.85046204201
1.7000000000000008 -0.0001242321819810627 -66762.36958252723
1.7500000000000009 -0.0001014348623755874 -54511.09094666021
1.800000000000001 -7.545455693236236e-05 -40549.27585005398
1.850000000000001 -4.710912665611609e-05 -25316.4427636402
1.900000000000001 -1.727403851380988e-05 -9283.067600129414
1.950000000000001 1.3145495303019802e-05 7064.388645281656
2.000000000000001 4.3245976448481774e-05 23240.385997976904
2.0500000000000007 7.215658992022053e-05 38776.948510837174
2.1000000000000005 9.9066636529652e-05 53238.40647263775
2.1500000000000004 0.00012324802636523542 66233.48439430284
2.2 0.00014407291850473822 77424.78058956475
2.25 0.0001610273433570254 86536.08782089168
2.3 0.00017372160034348348 93357.98101306535
2.3499999999999996 0.0001818977555329095 97751.84648186767
2.3999999999999995 0.00018543406500661346 99652.25905030832
2.4499999999999993 0.00018434579428898852 99067.42241058002
2.499999999999999 0.00017878195960160055 96077.41787413791
2.549999999999999 0.00016901791979377485 90830.22327549571
2.5999999999999988 0.00015544412333762757 83535.66560780987
2.6499999999999986 0.00013855160349743434 74457.62612748369
2.6999999999999984 0.0001189149545129173 63904.89175575282
2.7499999999999982 9.717349265218764e-05 52221.03102929698
2.799999999999998 7.401117004091822e-05 39773.599792847985
2.849999999999998 5.013576521029908e-05 26942.958200500936
2.8999999999999977 2.6257969962178447e-05 14111.031997885062
2.9499999999999975 3.0708509278630216e-06 1650.275164691943
2.9999999999999973 -1.876979232499233e-05 -10086.885637889216
3.049999999999997 -3.866355769046912e-05 -20777.79434237046
3.099999999999997 -5.6081507132836587e-05 -30138.199669698377
3.149999999999997 -7.057970492785246e-05 -37929.53057958273
3.1999999999999966 -8.18099086304634e-05 -43964.64159610713
3.2499999999999964 -8.95271931058487e-05 -48111.90996170432
3.2999999999999963 -9.359440107987745e-05 -50297.62736279207
3.349999999999996 -9.398339403125279e-05 -50506.67215916116
3.399999999999996 -9.077313501936688e-05 -48781.47909574192
3.4499999999999957 -8.414472055668002e-05 -45219.36943102135
3.4999999999999956 -7.43735753670815e-05 -39968.3564005012
3.5499999999999954 -6.181911099034739e-05 -33221.58775115107
3.599999999999995 -4.69122153460957e-05 -25210.622633582716
3.649999999999995 -3.014098847687413e-05 -16197.765990961238
3.699999999999995 -1.2035181141900253e-05 -6467.70585990905
3.7499999999999947 6.8501797771529825e-06 3681.2863357640695
3.7999999999999945 2.595148431352671e-05 13946.32662266959
3.8499999999999943 4.471305765430364e-05 24028.79537877317
3.899999999999994 6.260302856534606e-05 33642.865024315906
3.949999999999994 7.912810590094876e-05 42523.44091750536
3.999999999999994 9.384686541647181e-05 50433.30168708825
4.049999999999994 0.00010638120238417666 57169.253867638414
4.099999999999993 0.00011642566623450205 62567.14833540185
4.149999999999993 0.00012375446069685323 66505.64218367421
4.199999999999993 0.00012822596549599583 68908.62868226045
4.249999999999993 0.00012978471120624483 69746.29856403622
4.299999999999993 0.0001284608139397406 69034.83622645025
4.3499999999999925 0.00012436694867874062 66834.79320042006
4.399999999999992 0.00011769238473466017 63247.882806261194
4.449999999999992 0.00010869643426032613 58413.4593844368
4.499999999999992 9.76998547222668e-05 52503.89798451319
4.549999999999992 8.507309837673745e-05 45718.27963405024
4.599999999999992 7.122403324128052e-05 38275.79258921343
4.6499999999999915 5.6585244176578447e-05 30408.90793667408
4.699999999999991 4.1601183841044036e-05 22356.474517124818
4.749999999999991 2.6715170089948196e-05 14356.731328095615
4.799999999999991 1.2356548222908954e-05 6640.4085162725305
4.849999999999991 -1.071487631726623e-06 -575.8174100439131
4.899999999999991 -1.3202976528494105e-05 -7095.279053531564
4.94999999999999 -2.371885876361861e-05 -12746.51374225927
4.99999999999999 -3.235494947921287e-05 -17387.548544261095
5.04999999999999 -3.8908124831845586e-05 -20909.224714275275
5.09999999999999 -4.3240644213431826e-05 -23237.520455076276
5.14999999999999 -4.528251053058722e-05 -24334.81933150446
5.1999999999999895 -4.50318109158971e-05 -24200.0933686884
5.249999999999989 -4.255305949468579e-05 -22868.012454973545
5.299999999999989 -3.797364383919611e-05 -20407.034666541742
5.349999999999989 -3.147853925126377e-05 -16916.56572313377
5.399999999999989 -2.330349801645899e-05 -12523.298893499936
5.449999999999989 -1.372695118847279e-05 -7376.8630146561345
5.4999999999999885 -3.0608858970133642e-06 -1644.9199575155326
5.549999999999988 8.359016275629654e-06 4492.135009147759
5.599999999999988 2.0183679263274534e-05 10846.708421456628
5.649999999999988 3.206106762026255e-05 17229.616445122465
5.699999999999988 4.364645393847426e-05 23455.60258493532
5.749999999999988 5.461221726927142e-05 29348.603356320004
5.799999999999987 6.465687214709518e-05 34746.60048225335
5.849999999999987 7.35131216410935e-05 39505.94860288376
5.899999999999987 8.095472978755546e-05 43505.068520444016
5.949999999999987 8.680203270692304e-05 46647.408873311004
5.999999999999987 9.092595528416582e-05 48863.60469987694
6.0499999999999865 9.325045298464399e-05 50112.78967029559
6.099999999999986 9.37533710949972e-05 50383.057842501286
6.149999999999986 9.246573323266204e-05 49691.081307252316
6.199999999999986 8.94695070604375e-05 48080.909483228585
6.249999999999986 8.489394632106405e-05 45622.00332656205
6.299999999999986 7.891065384930454e-05 42406.582193728274
6.349999999999985 7.17275448903277e-05 38546.37972908931
6.399999999999985 6.358191523149367e-05 34168.91867919509
6.449999999999985 5.4732837050223165e-05 29413.424421735173
6.499999999999985 4.5453118160601136e-05 24426.5038649881
6.549999999999985 3.602106702865476e-05 19357.719967364155
6.5999999999999845 2.6712305956705545e-05 14355.192143006612
6.649999999999984 1.7791867964230192e-05 9561.34912588534
6.699999999999984 9.506799169965727e-06 5108.953490238662
6.749999999999984 2.079468336851505e-06 1117.5062002952338
6.799999999999984 -4.298240506272051e-06 -2309.874274590672
6.849999999999984 -9.469706711444946e-06 -5089.020004526671
6.8999999999999835 -1.331721085524701e-05 -7156.668576118
6.949999999999983 -1.576435550949412e-05 -8471.764014541965
6.999999999999983 -1.6777229705311977e-05 -9016.082566494186
7.049999999999983 -1.636431513501615e-05 -8794.182293082722
7.099999999999983 -1.4575168539665278e-05 -7832.694984952345
7.149999999999983 -1.1497949234137889e-05 -6178.997454360602
7.199999999999982 -7.25589227815139e-06 -3899.3162174257795
7.249999999999982 -2.002855843569631e-06 -1076.3346494976872
7.299999999999982 4.081905029210299e-06 2193.6155979491346
7.349999999999982 1.0799567448057075e-05 5803.6871107079405
7.399999999999982 1.7937988440456954e-05 9639.87426391208
7.4499999999999815 2.5278178877372608e-05 13584.492308455443
7.499999999999981 3.2600806971689686e-05 17519.67235079516
7.549999999999981 3.969255570157713e-05 21330.777832008844
7.599999999999981 4.6352152406965763e-05 24909.644832698814
7.649999999999981 5.239589584973909e-05 28157.552314915578
7.699999999999981 5.766252990889842e-05 30987.84124574285
7.7499999999999805 6.201734112637931e-05 33328.11661825392
7.79999999999998 6.535538460917356e-05 35121.98105118183
7.84999999999998 6.760376924877047e-05 36330.26286575486
7.89999999999998 6.87229601360347e-05 36931.71600339935
7.94999999999998 6.87070842457732e-05 36923.18430061358
7.99999999999998 6.758325456811667e-05 36319.2382771995
8.04999999999998 6.540995624304853e-05 35151.307845023686
8.09999999999998 6.227456534895722e-05 33466.348905085535
8.14999999999998 5.829009426064499e-05 31325.094303042526
8.199999999999982 5.3591277697616234e-05 28799.950471718326
8.249999999999982 4.8330129600055805e-05 25972.609696432886
8.299999999999983 4.2671112936273965e-05 22931.45436971831
8.349999999999984 3.6786072025370426e-05 19768.833621723028
8.399999999999984 3.0849079580501716e-05 16578.294121471663
8.449999999999985 2.5031348972139537e-05 13451.845927345414
8.499999999999986 1.9496356687883735e-05 10477.341297182422
8.549999999999986 1.4395310679526786e-05 7736.039378173105
8.599999999999987 9.863087271447209e-06 5300.422701594778
8.649999999999988 6.014742789043597e-06 3232.3225320728943
8.699999999999989 2.9426866050855065e-06 1581.3996628041061
8.74999999999999 7.145807013133342e-07 384.01564004481975
8.79999999999999 -6.279920338140899e-07 -337.4828936255037
8.84999999999999 -1.0700719039990656e-06 -575.0565980202636
8.899999999999991 -6.230831315665977e-07 -334.8448497558281
8.949999999999992 6.761624768309099e-07 363.36968775855075
8.999999999999993 2.7671715814038387e-06 1487.0778961614844
9.049999999999994 5.568117700976372e-06 2992.3062277716617
9.099999999999994 8.978747087788129e-06 4825.178322588964
9.149999999999995 1.2883743462706804e-05 6923.723216861934
9.199999999999996 1.715644275911033e-05 9219.871646300122
9.249999999999996 2.166278198048862e-05 11641.57816198988
9.299999999999997 2.6265362402670553e-05 14115.004695107156
9.349999999999998 3.082750683533316e-05 16566.70092908877
9.399999999999999 3.521719368753496e-05 18925.718466291255
9.45 3.9310861442634356e-05 21125.655352658436
9.5 4.2996422157868714e-05 23106.275532273627
9.55 4.617653167562631e-05 24815.26625876516
9.600000000000001 4.8771009360014606e-05 26209.53846164054
9.650000000000002 5.071872531167966e-05 27256.24093545419
9.700000000000003 5.19788375530511e-05 27933.42520310821
9.750000000000004 5.253142208768059e-05 28230.384109715407
9.800000000000004 5.2377512418831464e-05 28147.673059887788
9.850000000000005 5.1538554236068356e-05 27696.81696633182
9.900000000000006 5.005528949995666e-05 26899.710557010974
9.950000000000006 4.798610267860046e-05 25787.729642727947
10.000000000000007 4.540488594972007e-05 24400.583876807297
10.050000000000008 4.239850119465705e-05 22784.952830776176
10.100000000000009 3.9063929725682125e-05 20992.954257934638
10.15000000000001 3.550520569947824e-05 19080.49610988521
10.20000000000001 3.183022866266402e-05 17105.563598625835
10.25000000000001 2.814754782443152e-05 15126.491064795207
10.300000000000011 2.4563207710518963e-05 13200.266832245019
10.350000000000012 2.117774276009748e-05 11380.918104528197
10.400000000000013 1.8083404968434986e-05 9718.021100178363
10.450000000000014 1.536170106768267e-05 8255.3775337639
10.500000000000014 1.3081304099156769e-05 7029.892294916463
10.550000000000015 1.129639039129857e-05 6070.679740353805
10.600000000000016 1.004543849936506e-05 5398.418244118011
10.650000000000016 9.350512321484177e-06 5024.9649441725205
10.700000000000017 9.217036501456324e-06 4953.235043876728
10.750000000000018 9.634058293890724e-06 5177.34253829969
10.800000000000018 1.0574976273775423e-05 5682.991822713634
10.85000000000002 1.1998702445204398e-05 6448.102209777002
10.90000000000002 1.3851214871449443e-05 7443.642312872421
10.95000000000002 1.606744648594514e-05 8634.645093053783
11.000000000000021 1.8573445922144018e-05 9981.36908892321
11.050000000000022 2.1288740347443334e-05 11440.568203487921
11.100000000000023 2.412882694429252e-05 12966.830626006833
11.150000000000023 2.7007718015044577e-05 14513.946571234976
11.200000000000024 2.9840464897945524e-05 16036.264631774342
11.250000000000025 3.254558827748522e-05 17489.997826758343
11.300000000000026 3.504734696525408e-05 18834.442844592635
11.350000000000026 3.7277783583595486e-05 20033.079393267362
11.400000000000027 3.917849358305389e-05 21054.52087026235
11.450000000000028 4.070207337687633e-05 21873.292589969806
11.500000000000028 4.181321375120622e-05 22470.419382288306
11.55000000000003 4.248941583475864e-05 22833.810354697398
11.60000000000003 4.272131845831079e-05 22958.43481523457
11.65000000000003 4.251263724625799e-05 22846.289540299913
11.700000000000031 4.187972698838131e-05 22506.163593261677
11.750000000000032 4.0850789536139874e-05 21953.21264795575
11.800000000000033 3.946475917285547e-05 21208.35998666784
11.850000000000033 3.7769905895744104e-05 20297.545903953633
11.900000000000034 3.582220433675026e-05 19250.851164760912
11.950000000000035 3.368352128464035e-05 18101.522978875753
12.000000000000036 3.1419678221182034e-05 16884.93380794351
12.050000000000036 2.9098448382363334e-05 15637.504986248769
12.100000000000037 2.6787548170648264e-05 14395.627305742602
12.150000000000038 2.455268082054741e-05 13194.60968199918
12.200000000000038 2.2455687323662735e-05 12067.685461409448
12.250000000000039 2.055285555295071e-05 11045.103744628397
12.30000000000004 1.889343296833581e-05 10153.33011463178
12.35000000000004 1.7518380813215757e-05 9414.37714196831
12.400000000000041 1.6459399514149495e-05 8845.28063459131
12.450000000000042 1.573824642317091e-05 8457.732992605654
12.500000000000043 1.5366358220751986e-05 8257.880287635384
12.550000000000043 1.534478133404814e-05 8246.284869591596
12.600000000000044 1.5664404767245587e-05 8418.050489691683
12.650000000000045 1.6306480761674373e-05 8763.102103183086
12.700000000000045 1.7243410928400866e-05 9266.608336966761
12.750000000000046 1.843976859271698e-05 9909.530897484428
12.800000000000047 1.9853521892757076e-05 10669.281863865925
12.850000000000048 2.143741688811333e-05 11520.466970443289
12.900000000000048 2.3140476680276806e-05 12435.691234015283
12.950000000000049 2.4909570790333494e-05 13386.402337357898
13.00000000000005 2.6691007212340424e-05 14343.746198644429
13.05000000000005 2.8432100354899265e-05 15279.409583183839
13.100000000000051 3.008267002344775e-05 16166.425656443673
13.150000000000052 3.15964298743902e-05 16979.920139243764
13.200000000000053 3.293222824189113e-05 17697.778128025027
13.250000000000053 3.405510920973336e-05 18301.214314823195
13.300000000000054 3.493716758667912e-05 18775.232450993368
13.350000000000055 3.5558178481140255e-05 19108.963680612356
13.400000000000055 3.590598902993838e-05 19295.8770554986
13.450000000000056 3.5976666734160126e-05 19333.859250894766
13.500000000000057 3.5774406105197864e-05 19225.16439705382
13.550000000000058 3.5311202234414986e-05 18976.23865559033
13.600000000000058 3.460630685968536e-05 18597.427909660688
13.650000000000059 3.368548857613318e-05 18102.5802012446
13.70000000000006 3.258012346710817e-05 17508.557036267855
13.75000000000006 3.1326146454488115e-05 16834.669840297207
13.800000000000061 2.9962897114638248e-05 16102.059700083564
13.850000000000062 2.8531895740601994e-05 15333.039619432675
13.900000000000063 2.7075587126500616e-05 14550.419428992207
13.950000000000063 2.5636089306454037e-05 13776.833358598293
14.000000000000064 2.425398345890797e-05 13034.089731909773
14.050000000000065 2.2967179065149165e-05 12342.561102640098
14.100000000000065 2.1809885077042036e-05 11720.631360140504
14.150000000000066 2.081171385431549e-05 11184.214185334133
14.200000000000067 1.9996940551019524e-05 10746.355045027689
14.250000000000068 1.9383936299400652e-05 10416.926584948977
14.300000000000068 1.898478545695918e-05 10202.422938330932
14.350000000000069 1.8805093368290455e-05 10105.856417132854
14.40000000000007 1.884398664190189e-05 10126.757660801879
14.45000000000007 1.9094301979823604e-05 10261.27711329811
14.500000000000071 1.9542952806009296e-05 10502.382049182448
14.550000000000072 2.017145774033356e-05 10840.140575521418
14.600000000000072 2.095661108797482e-05 11262.081952854503
14.650000000000073 2.187127259936911e-05 11753.621012161433
14.700000000000074 2.2885251203737084e-05 12298.53307322391
14.750000000000075 2.3966255076659746e-05 12879.464510902493
14.800000000000075 2.508087876242388e-05 13478.463234645164
14.850000000000076 2.619559758416019e-05 14077.513084455442
14.900000000000077 2.727774022613315e-05 14659.056496575693
14.950000000000077 2.829641193570914e-05 15206.490632187544
15.000000000000078 2.9223343083134362e-05 15704.623393402282
15.050000000000079 3.0033640521033397e-05 16140.077203825065
15.10000000000008 3.070642204479612e-05 16501.62996754123
15.15000000000008 3.122531879720229e-05 16780.485061341275
15.200000000000081 3.1578834673891284e-05 16970.4644792058
15.250000000000082 3.1760555937584685e-05 17068.12147898024
15.300000000000082 3.176920863830357e-05 17072.771439997337
15.350000000000083 3.1608565991709676e-05 16986.442088201427
15.400000000000084 3.1287212025391026e-05 16813.746479671852
15.450000000000085 3.081817153146419e-05 16561.684137166365
15.500000000000085 3.021842061279298e-05 16239.378017678813
15.550000000000086 2.9508295673860344e-05 15857.756904157544
15.600000000000087 2.8710820583396905e-05 15429.193822729132
15.650000000000087 2.785097307940625e-05 14967.111808788588
15.700000000000088 2.6954913004411145e-05 14485.569160651816
15.750000000000089 2.6049195671040742e-05 13998.836702253933
15.80000000000009 2.515999335970475e-05 13520.979416030783
15.85000000000009 2.431234796932208e-05 13065.454817450685
15.900000000000091 2.3529475850562622e-05 12644.739372426608
15.950000000000092 2.28321429254038e-05 12269.99268659109
16.000000000000092 2.2238125972363013e-05 11950.768000001903
16.050000000000093 2.1761773641617535e-05 11694.776276685188
16.100000000000094 2.141370084852074e-05 11507.721971723427
16.150000000000095 2.120059165721589e-05 11393.197100917432
16.200000000000095 2.112506123992366e-05 11352.607057713049
16.250000000000096 2.118550963419117e-05 11385.092022352668
16.300000000000097 2.1376366502282584e-05 11487.658495561882
16.350000000000097 2.1688538504876717e-05 11655.419717156492
16.400000000000098 2.2109843559213297e-05 11881.82903635281
16.4500000000001 2.262537828123256e-05 12158.877375158627
16.5000000000001 2.3217882879421377e-05 12477.289322311408
16.5500000000001 2.3868202328494744e-05 12826.770967996097
16.6000000000001 2.45558860059803e-05 13196.332148521451
16.6500000000001 2.5259883250720748e-05 13574.660239431158
16.700000000000102 2.5959247113600853e-05 13950.49835111612
16.750000000000103 2.663377309017435e-05 14312.988583702388
16.800000000000104 2.726454714076699e-05 14651.966533032402
16.850000000000104 2.783441695902797e-05 14958.214550365517
