# (1): time [s] (2): displacement/rotation [m/rad] (3): support force/ moment [N]/[N m]
0.05 0.0 0.0
0.1 2.2445445820235744e-09 0.008861106834072457
0.15000000000000002 5.3920724060811925e-08 0.21287048620020566
0.2 -1.006425695462124e-07 -0.3973209389320958
0.25 -9.168568244174735e-07 -3.6196056597758033
0.3 -2.4769051774039475e-06 -9.778429695994806
0.35 -4.434376752797435e-06 -17.506217726199157
0.39999999999999997 -6.227820731306256e-06 -24.586450759558304
0.44999999999999996 -7.509755318112486e-06 -29.64732565549888
0.49999999999999994 -8.299663810890409e-06 -32.76575939021042
0.5499999999999999 -8.93450956260997e-06 -35.27202996028412
0.6 -9.887280750254701e-06 -39.03341984300795
0.65 -1.1520623078821465e-05 -45.481596896811176
0.7000000000000001 -1.3910062955458579e-05 -54.914727425849605
0.7500000000000001 -1.683710201977097e-05 -66.47021447836883
0.8000000000000002 -1.9938218695598724e-05 -78.7129323951853
0.8500000000000002 -2.290167509787407e-05 -90.41218933531859
0.9000000000000002 -2.560078531312409e-05 -101.06784935910132
0.9500000000000003 -2.8111844493940986e-05 -110.98111365605583
1.0000000000000002 -3.063603771190404e-05 -120.94622905333904
1.0500000000000003 -3.338227910840982e-05 -131.78795552270194
1.1000000000000003 -3.647187894181914e-05 -143.98520676807055
1.1500000000000004 -3.9904105777182955e-05 -157.53509520000804
1.2000000000000004 -4.358308791621077e-05 -172.05913452435928
1.2500000000000004 -4.737946423256878e-05 -187.04662748440663
1.3000000000000005 -5.1191120211445234e-05 -202.0944421342297
1.3500000000000005 -5.4977469280491405e-05 -217.04234910859716
1.4000000000000006 -5.87594763719795e-05 -231.97311464263797
1.4500000000000006 -6.259405943618326e-05 -247.11144179736124
1.5000000000000007 -6.654016938369646e-05 -262.6900594394248
1.5500000000000007 -7.06329098975698e-05 -278.8475513547212
1.6000000000000008 -7.487434444043943e-05 -295.5920637672166
1.6500000000000008 -7.92402623653677e-05 -312.82801687388337
1.7000000000000008 -8.369567103922498e-05 -330.41726529634474
1.7500000000000009 -8.821017667593229e-05 -348.23981917666043
1.800000000000001 -9.27670304378442e-05 -366.229556754135
1.850000000000001 -9.73640238274061e-05 -384.3777592298945
1.900000000000001 -0.00010200837312213473 -402.7129153256745
1.950000000000001 -0.00010670942139059455 -421.27190999772426
2.000000000000001 -0.00011147261145379887 -440.0762306421349
2.0500000000000007 -0.0001162966352710928 -459.12071332138447
2.1000000000000005 -0.00012117387167036108 -478.37527085393305
2.1500000000000004 -0.00012609291436194368 -497.79487301312906
2.2 -0.0001310415373415054 -517.3312534684948
2.25 -0.00013600879121290963 -536.9411857367105
2.3 -0.0001409858620380247 -556.5898737847461
2.3499999999999996 -0.00014596597517153745 -576.2505723849223
2.3999999999999995 -0.00015094337301140096 -595.9005514354382
2.4499999999999993 -0.00015591214469163226 -615.5164757727257
2.499999999999999 -0.00016086564181009297 -635.072098557183
2.549999999999999 -0.00016579651157128616 -654.5383921156913
2.5999999999999988 -0.00017069705172855583 -673.8849491972529
2.6499999999999986 -0.00017555958329369518 -693.081454371547
2.6999999999999984 -0.0001803763840538742 -712.0974215642804
2.7499999999999982 -0.00018513934616539124 -730.9008422915006
2.799999999999998 -0.0001898398769031501 -749.4577938342368
2.849999999999998 -0.00019446931630378748 -767.7340880274796
2.8999999999999977 -0.0001990192199706387 -785.6963877294346
2.9499999999999975 -0.0002034811781271144 -803.3114924728862
2.9999999999999973 -0.00020784652233982466 -820.5451806545003
3.049999999999997 -0.0002121062260520521 -837.361816856715
3.099999999999997 -0.00021625106511934998 -853.724985616879
3.149999999999997 -0.0002202719330134552 -869.598735802423
3.1999999999999966 -0.0002241598106940963 -884.947461669524
3.2499999999999964 -0.00022790568685364138 -899.7355880015967
3.2999999999999963 -0.00023150049084548125 -913.9273053211632
3.349999999999996 -0.0002349352499263253 -927.4871906575553
3.399999999999996 -0.00023820120778352257 -940.3806754740219
3.4499999999999957 -0.0002412896519998079 -952.5733645258493
3.4999999999999956 -0.0002441917181102969 -964.0302623083833
3.5499999999999954 -0.0002468983609969954 -974.7156601270777
3.599999999999995 -0.00024940037823863143 -984.5932282789388
3.649999999999995 -0.0002516883282926102 -993.6256930478273
3.699999999999995 -0.000253752628335937 -1001.7752229649423
3.7499999999999947 -0.00025558389299944705 -1009.0047660779576
3.7999999999999945 -0.00025717322630809816 -1015.2792024851019
3.8499999999999943 -0.0002585122524933494 -1020.5654659775537
3.899999999999994 -0.00025959298953457245 -1024.8320448009438
3.949999999999994 -0.0002604077274159445 -1028.0485010328334
3.999999999999994 -0.0002609489748849446 -1030.185260393682
4.049999999999994 -0.00026120945414818324 -1031.2135913068232
4.099999999999993 -0.00026118210327294303 -1031.1056143793653
4.149999999999993 -0.000260860067381459 -1029.8342676386055
4.199999999999993 -0.000260236683675083 -1027.3732474097992
4.249999999999993 -0.000259305471852981 -1023.6969704906934
4.299999999999993 -0.00025806013298161813 -1018.7805696884332
4.3499999999999925 -0.000256494550581767 -1012.5998981108977
4.399999999999992 -0.0002546049961605002 -1005.1402362580046
4.449999999999992 -0.00025238629974401195 -996.3811738912632
4.499999999999992 -0.00024982994577900326 -986.2890929537464
4.549999999999992 -0.0002469282024553174 -974.8334694824339
4.599999999999992 -0.00024367609677559073 -961.9946708706585
4.6499999999999915 -0.00024007013811575643 -947.7589166869598
4.699999999999991 -0.00023610672935634686 -932.1120060728858
4.749999999999991 -0.00023178155359198537 -915.036896569115
4.799999999999991 -0.00022708983488710003 -896.5147335377511
4.849999999999991 -0.00022202685793016837 -876.5269016750525
4.899999999999991 -0.00021658830308238092 -855.0563477305369
4.94999999999999 -0.000210770307257551 -832.0878208512326
4.99999999999999 -0.00020456937255336605 -807.607511872316
5.04999999999999 -0.00019798226203279447 -781.6026418785979
5.09999999999999 -0.00019100595044852417 -754.0612676724039
5.14999999999999 -0.0001836376305244309 -724.9723065718177
5.1999999999999895 -0.00017587474707670152 -694.3256711154763
5.249999999999989 -0.00016771503246000861 -662.1124089984581
5.299999999999989 -0.00015915652948534249 -628.3247935482577
5.349999999999989 -0.00015019760041340278 -592.9563592292723
5.399999999999989 -0.00014083692775521933 -556.0019048035266
5.449999999999989 -0.00013107351402165084 -517.4574923417331
5.4999999999999885 -0.00012090668532750187 -477.3204614517754
5.549999999999988 -0.00011033610037436164 -435.58946474153464
5.599999999999988 -9.93617636993474e-05 -392.2645201228319
5.649999999999988 -8.798404142569598e-05 -347.3470729922709
5.699999999999988 -7.620368559930126e-05 -300.84009230803736
5.749999999999988 -6.402208248260402e-05 -252.74905081488578
5.799999999999987 -5.1441506881880325e-05 -203.0829290880298
5.849999999999987 -3.846480950762296e-05 -151.8529812813997
5.899999999999987 -2.5095037369059974e-05 -99.07123650527048
5.949999999999987 -1.13353368178098e-05 -44.75011605795434
5.999999999999987 2.8109213323955076e-06 11.097072621330664
6.0499999999999865 1.7339987737206585e-05 68.45552771438784
6.099999999999986 3.224762902473049e-05 127.30853653887077
6.149999999999986 4.752907797297797e-05 187.637278856729
6.199999999999986 6.317902256241582e-05 249.42078365541715
6.249999999999986 7.91916138106828e-05 312.6359600781135
6.299999999999986 9.55604756522576e-05 377.2576364270856
6.349999999999985 0.00011227871068020732 443.2585828312051
6.399999999999985 0.00012933891539534256 510.6095714471988
6.449999999999985 0.0001467332146045286 579.2795122587379
6.499999999999985 0.00016445329666767657 649.2355922259817
6.549999999999985 0.00018249042797536952 720.4433324409549
6.5999999999999845 0.0002008354447202915 792.8665556424509
6.649999999999984 0.00021947873618744496 866.4673202484547
6.699999999999984 0.00023841023525043663 941.2058828369834
6.749999999999984 0.0002576194231577122 1017.0407170413831
6.799999999999984 0.00027709534599164374 1093.928578528202
6.849999999999984 0.000296826635240446 1171.8245862118604
6.8999999999999835 0.00031680152570296924 1250.6822929399393
6.949999999999983 0.00033700786804523796 1330.4537350644086
6.999999999999983 0.00035743313746217445 1411.0894666367417
7.049999999999983 0.00037806444188510734 1492.5385918098586
7.099999999999983 0.0003988885326267358 1574.7488068627629
7.149999999999983 0.00041989181828472035 1657.6664550897153
7.199999999999982 0.000441060380667749 1741.2365896738252
7.249999999999982 0.0004623799906764241 1825.4030363822765
7.299999999999982 0.00048383612274427646 1910.1084505771685
7.349999999999982 0.0005054139679532781 1995.2943689934834
7.399999999999982 0.0005270984472395328 2080.9012618730635
7.4499999999999815 0.0005488742257332125 2166.8685895764106
7.499999999999981 0.0005707257275477274 2253.1348609679903
7.549999999999981 0.0005926371493517547 2339.6376869964515
7.599999999999981 0.0006145924739023358 2426.3138341211557
7.649999999999981 0.000636575484830292 2513.0992826826564
7.699999999999981 0.000658569782918611 2599.929291167194
7.7499999999999805 0.0006805588034418373 2686.7384646598657
7.79999999999998 0.0007025258337931648 2773.460824433596
7.84999999999998 0.0007244540313902778 2860.029878638565
7.89999999999998 0.0007463264433827343 2946.378700103841
7.94999999999998 0.0007681260267099943 3032.4400055232963
7.99999999999998 0.0007898356655132049 3118.1462241945874
8.04999999999998 0.0008114381851714621 3203.429553432089
8.09999999999998 0.0008329163644582901 3288.222006558755
8.14999999999998 0.0008542529475387992 3372.455460268995
8.199999999999982 0.0008754306554648939 3456.061700009943
8.249999999999982 0.0008964321955513888 3538.972456996873
8.299999999999983 0.0009172402689141332 3621.1194379725257
8.349999999999984 0.0009378375784818583 3702.4343568366135
8.399999999999984 0.0009582068400811018 3782.848978407347
8.449999999999985 0.0009783307972905427 3862.295177064
8.499999999999986 0.0009981922382881294 3940.705003256703
8.549999999999986 0.0010177740120450034 4018.010747437495
8.599999999999987 0.0010370590421836209 4094.144994769991
8.649999999999988 0.001056030338534132 4169.0406707521415
8.699999999999989 0.0010746710075731304 4242.63108242676
8.74999999999999 0.0010929642622789662 4314.849957288747
8.79999999999999 0.0011108934296739908 4385.631473060668
8.84999999999999 0.0011284419539962143 4454.910270213964
8.899999999999991 0.0011455933963592153 4522.621450626326
8.949999999999992 0.0011623314355285307 4588.700580646759
8.999999999999993 0.00117863987635413 4653.083724385655
9.049999999999994 0.0011945026684769293 4715.707517565153
9.099999999999994 0.0012099039303958602 4776.509262532117
9.149999999999995 0.0012248279703372421 4835.427010647116
9.199999999999996 0.0012392592985087678 4892.399610661218
9.249999999999996 0.0012531826312873673 4947.366725249016
9.299999999999997 0.001266582891820493 5000.268833382409
9.349999999999998 0.0012794452121235335 5051.047238610853
9.399999999999999 0.0012917549395319735 5099.6440945334725
9.45 0.0013034984139865204 5146.005473397743
9.5 0.0013146602233985768 5190.0705307166845
9.55 0.0013252265872634617 5231.784863238436
9.600000000000001 0.0013351840499786737 5271.095350373532
9.650000000000002 0.0013445193994390489 5307.949832821462
9.700000000000003 0.0013532195172523325 5342.296521245454
9.750000000000004 0.001361271429763771 5374.084197709487
9.800000000000004 0.0013686624394049966 5403.2627342229
9.850000000000005 0.0013753801979532 5429.783381956022
9.900000000000006 0.0013814127088038223 5453.59878021239
9.950000000000006 0.0013867482987198316 5474.6628448993715
10.000000000000007 0.0013913756002094096 5492.930698958054
10.050000000000008 0.001395283557838571 5508.3586972844705
10.100000000000009 0.0013984614485658183 5520.904507007599
10.15000000000001 0.0014008989025075936 5530.527189468078
10.20000000000001 0.0014025859182629872 5537.187260717734
10.25000000000001 0.0014035128738507513 5540.846734697178
10.300000000000011 0.0014036705357355767 5541.469158870121
10.350000000000012 0.0014030500664428728 5539.019644285317
10.400000000000013 0.0014016430306651566 5533.464889683622
10.450000000000014 0.0013994414007210908 5524.773203049413
10.500000000000014 0.001396437562999741 5512.9145270514955
10.550000000000015 0.001392624326790528 5497.860473902359
10.600000000000016 0.0013879949358251388 5479.584370923812
10.650000000000016 0.0013825430817324305 5458.061313664815
10.700000000000017 0.0013762629182969225 5433.268222191756
10.750000000000018 0.001369149076045632 5405.183898674959
10.800000000000018 0.001361196675656851 5373.789080324424
10.85000000000002 0.001352401331683995 5339.066454090986
10.90000000000002 0.0013427591500778276 5301.000646884452
10.95000000000002 0.0013322667276993332 5259.578223650502
11.000000000000021 0.0013209211573078283 5214.787707062956
11.050000000000022 0.0013087200369405851 5166.61961455305
11.100000000000023 0.0012956614798389449 5115.06649749616
11.150000000000023 0.0012817441227844872 5060.122974121677
11.200000000000024 0.001266967133653443 5001.785759336635
11.250000000000025 0.0012513302176071477 4940.053689164643
11.300000000000026 0.001234833624192513 4874.927748777419
11.350000000000026 0.0012174781565992025 4806.411109040659
11.400000000000027 0.0011992651823496423 4734.509168716504
11.450000000000028 0.001180196644243679 4659.229597671321
11.500000000000028 0.0011602750731994262 4580.582387569333
11.55000000000003 0.001139503605602269 4498.579920363738
11.60000000000003 0.001117886004009227 4413.237050034265
11.65000000000003 0.0010954266734397595 4324.57116690069
11.700000000000031 0.0010721306668616724 4232.602219280331
11.750000000000032 0.0010480036822481508 4137.3527018696805
11.800000000000033 0.0010230520577859214 4038.847636826981
11.850000000000033 0.0009972827698944697 3937.1145659524173
11.900000000000034 0.0009707034371615391 3832.1835662248373
11.950000000000035 0.000943322328888248 3724.087283536526
12.000000000000036 0.0009151483700500377 3612.8609522782413
12.050000000000036 0.0008861911449117509 3498.542409610973
12.100000000000037 0.0008564609032330969 3381.1721199641356
12.150000000000038 0.0008259685724641791 3260.793223181582
12.200000000000038 0.0007947257812156614 3137.4516271781076
12.250000000000039 0.0007627448527952376 3011.1959824224523
12.30000000000004 0.0007300387719365681 2882.0775505884085
12.35000000000004 0.0006966211700198157 2750.1501462078363
12.400000000000041 0.0006625063380836903 2615.470188040153
12.450000000000042 0.000627709248584194 2478.0967849724216
12.500000000000043 0.0005922455676079228 2338.091784235528
12.550000000000043 0.0005561316494842025 2195.5197501337475
12.600000000000044 0.0005193845148884214 2050.4478776001697
12.650000000000045 0.00048202182972260747 1902.9459088205565
12.700000000000045 0.0004440618964495767 1753.0860990219314
12.750000000000046 0.0004055236577702557 1600.943230990068
12.800000000000047 0.00036642670630984925 1446.5946533089461
12.850000000000048 0.00032679128719981113 1290.1202905539649
12.900000000000048 0.0002866382719000899 1131.60253994631
12.950000000000049 0.00024598914011719205 971.1261999683301
13.00000000000005 0.0002048659799485097 808.7784709333181
13.05000000000005 0.00016329150768663547 644.6490331698136
13.100000000000051 0.00012128908671173905 478.83012160571536
13.150000000000052 7.888272296068965e-05 311.41650788109405
13.200000000000053 3.6097039273192585e-05 142.50539907079875
13.250000000000053 -7.042755880139645e-06 -27.803685772169676
13.300000000000054 -5.051089072173762e-05 -199.40900374808209
13.350000000000055 -9.428104586905766e-05 -372.2066500994236
13.400000000000055 -0.0001383263712429778 -546.0906249625656
13.450000000000056 -0.00018261950090088497 -720.9528919264465
13.500000000000057 -0.00022713255545072847 -896.6833875628729
13.550000000000058 -0.0002718371236518525 -1073.1699487895182
13.600000000000058 -0.00031670423749907315 -1250.2982145058006
13.650000000000059 -0.00036170435194785407 -1427.9515455510857
13.70000000000006 -0.00040680734133833306 -1606.0110105873089
13.75000000000006 -0.00045198250642450636 -1784.3554138490827
13.800000000000061 -0.0004971985790058267 -1962.8613134285126
13.850000000000062 -0.0005424237734470416 -2141.4032246673673
13.900000000000063 -0.0005876258551505889 -2319.85389047526
13.950000000000063 -0.0006327721922844313 -2498.0844855429536
14.000000000000064 -0.0006778297758894789 -2675.9646957232853
14.050000000000065 -0.000722765215148871 -2853.3626993550374
14.100000000000065 -0.000767544728291128 -3030.1451313500206
14.150000000000066 -0.0008121341391568223 -3206.1770696388357
14.200000000000067 -0.0008564988873045305 -3381.3220750675728
14.250000000000068 -0.0009006040113150519 -3555.442125485506
14.300000000000068 -0.0009444142021803116 -3728.397826516039
14.350000000000069 -0.000987893922868929 -3900.0488835826445
14.40000000000007 -0.0010310074838310048 -4070.2543999898194
14.45000000000007 -0.001073719045008639 -4238.8728848602905
14.500000000000071 -0.0011159925837627115 -4405.762126515016
14.550000000000072 -0.001157791871446922 -4570.7790999912095
14.600000000000072 -0.0011990804837682103 -4733.780007943634
14.650000000000073 -0.001239821844572952 -4894.620453505573
14.700000000000074 -0.0012799792773725623 -5053.155643703766
14.750000000000075 -0.0013195160440213347 -5209.240542152394
14.800000000000075 -0.0013583953719249074 -5362.729976467792
14.850000000000076 -0.0013965804812163499 -5513.478745555351
14.900000000000077 -0.001434034618847316 -5661.341754195988
14.950000000000077 -0.001470721097645863 -5806.174167240232
15.000000000000078 -0.001506603330473575 -5947.831544455152
15.050000000000079 -0.0015416448526689485 -6086.169929127283
15.10000000000008 -0.0015758093559392595 -6221.04598186236
15.15000000000008 -0.0016090607365882323 -6352.31717098052
15.200000000000081 -0.001641363150108148 -6479.841988037308
15.250000000000082 -0.0016726810627531697 -6603.480151427003
15.300000000000082 -0.0017029792948770508 -6723.092777473036
15.350000000000083 -0.0017322230585997001 -6838.542529129627
15.400000000000084 -0.00176037799895001 -6949.693778407158
15.450000000000085 -0.0017874102439708287 -7056.412804178677
15.500000000000085 -0.0018132864633205418 -7158.5680235296695
15.550000000000086 -0.0018379739299322552 -7256.030235178755
15.600000000000087 -0.0018614405830272415 -7348.6728682448
15.650000000000087 -0.0018836550911324533 -7436.372231030094
15.700000000000088 -0.0019045869164853995 -7519.007765280603
15.750000000000089 -0.001924206384993032 -7596.462322372588
15.80000000000009 -0.0019424847635947898 -7668.622468729663
15.85000000000009 -0.001959394332762646 -7735.378772041503
15.900000000000091 -0.0019749084479925693 -7796.626044022405
15.950000000000092 -0.0019890015977888625 -7852.263569324288
16.000000000000092 -0.0020016494674559566 -7902.19535737659
16.050000000000093 -0.002012829016773545 -7946.330449035418
16.100000000000094 -0.0020225208690098505 -7984.592348029876
16.150000000000095 -0.0020307098195594298 -8016.921028983649
16.200000000000095 -0.002037382684841261 -8043.264445205024
16.250000000000096 -0.002042515247188388 -8063.526989177053
16.300000000000097 -0.0020460808508770477 -8077.603428320306
16.350000000000097 -0.0020480587404511624 -8085.411823378527
16.400000000000098 -0.002048437125126981 -8086.905626203233
16.4500000000001 -0.0020472109997634828 -8082.065077289685
16.5000000000001 -0.0020443778644130377 -8070.880307240231
16.5500000000001 -0.002039934304927035 -8053.33783753641
16.6000000000001 -0.002033875000630523 -8029.416662995452
16.6500000000001 -0.002026193957826768 -7999.093121451093
16.700000000000102 -0.0020168866434031904 -7962.349316892188
16.750000000000103 -0.0020059516480908464 -7919.179685747947
16.800000000000104 -0.0019933912011397313 -7869.593028744597
