# Results for "element" with Id # 169355 at position: x: -22.50001; y: 9.82759275862; z: 120
# time PRESSURE
0.02 0.0
0.04 445.22394074881316
0.06 1048.9907868150563
0.08 1748.789927823033
0.1 2475.8955975603653
0.12000000000000001 3162.0907771397865
0.14 3745.9264170451447
0.16 4178.071962954211
0.18 4425.345758689451
0.19999999999999998 4473.1152489473725
0.21999999999999997 4325.898596368882
0.23999999999999996 4006.1624679048127
0.25999999999999995 3551.480468105732
0.27999999999999997 3010.372730070052
0.3 2437.272000797431
0.32 1887.1373324361612
0.34 1410.2544592687495
0.36000000000000004 1047.720155249193
0.38000000000000006 828.0145491347545
0.4000000000000001 764.933817768602
0.4200000000000001 857.0062565043277
0.4400000000000001 1088.3640512147942
0.46000000000000013 1430.9087976184885
0.48000000000000015 1847.5009000946147
0.5000000000000001 2295.8283104170446
0.5200000000000001 2732.5700424649203
0.5400000000000001 3117.4642643531306
0.5600000000000002 3416.9166667886584
0.5800000000000002 3606.8389480624555
0.6000000000000002 3674.625469859554
0.6200000000000002 3619.6356619258504
0.6400000000000002 3452.7303716681113
0.6600000000000003 3194.809887997314
0.6800000000000003 2874.3952479809427
0.7000000000000003 2524.5880338531038
0.7200000000000003 2179.7273372186423
0.7400000000000003 1872.0800725594383
0.7600000000000003 1628.8826922322964
0.7800000000000004 1470.00249075836
0.8000000000000004 1406.4117132715437
0.8200000000000004 1439.5784782879443
0.8400000000000004 1561.784554947977
0.8600000000000004 1757.2920417514297
0.8800000000000004 2004.2061878698796
0.9000000000000005 2276.8258465745157
0.9200000000000005 2548.2394631494644
0.9400000000000005 2792.9139705561597
0.9600000000000005 2989.036298209301
0.9800000000000005 3120.399875147643
1.0000000000000004 3177.6788755650646
1.0200000000000005 3158.9956389248964
1.0400000000000005 3069.7570518477473
1.0600000000000005 2921.805501705515
1.0800000000000005 2731.9950270629247
1.1000000000000005 2520.353883723836
1.1200000000000006 2308.028737082317
1.1400000000000006 2115.2184535970277
1.1600000000000006 1959.2967989397368
1.1800000000000006 1853.108330779774
1.2000000000000006 1803.9796819425633
1.2200000000000006 1813.8086172800965
1.2400000000000007 1878.801894330247
1.2600000000000007 1990.112380745635
1.2800000000000007 2134.923785709204
1.3000000000000007 2297.85835311408
1.3200000000000007 2462.559336970371
1.3400000000000007 2613.290599893544
1.3600000000000008 2736.4016054050317
1.3800000000000008 2821.5255908655104
1.4000000000000008 2862.4097159786324
1.4200000000000008 2857.3150584243795
1.4400000000000008 2808.9678140528754
1.4600000000000009 2724.086633607196
1.4800000000000009 2612.550732626447
1.5000000000000009 2486.304859566786
1.520000000000001 2358.1186526131005
1.540000000000001 2240.326363628102
1.560000000000001 2143.6689966812505
1.580000000000001 2076.3451121363714
1.600000000000001 2043.3511172040248
1.620000000000001 2046.1599846630124
1.640000000000001 2082.7523854864958
1.660000000000001 2147.979806831467
1.680000000000001 2234.208615219197
1.700000000000001 2332.169967407083
1.720000000000001 2431.9245894433284
1.740000000000001 2523.84510869425
1.7600000000000011 2599.517749149561
1.7800000000000011 2652.335362616239
1.8000000000000012 2678.359518441203
1.8200000000000012 2676.410733354657
1.8400000000000012 2648.049643249169
1.8600000000000012 2597.2959364390854
1.8800000000000012 2530.1243278026013
1.9000000000000012 2453.7964475922554
1.9200000000000013 2376.100724704926
1.9400000000000013 2304.577811372317
1.9600000000000013 2245.8069651811484
1.9800000000000013 2204.819318759833
2.0000000000000013 2184.688544628436
2.0200000000000014 2186.3298336635944
2.0400000000000014 2208.5165058197163
2.0600000000000014 2248.102117659767
2.0800000000000014 2300.4167812420374
2.1000000000000014 2359.7912022482565
2.1200000000000014 2420.1518208619914
2.1400000000000015 2475.626456786332
2.1600000000000015 2521.101601619354
2.1800000000000015 2552.679915813197
2.2000000000000015 2567.99844961461
2.2200000000000015 2566.3833141728505
2.2400000000000015 2548.8334434799835
2.2600000000000016 2517.842966792799
2.2800000000000016 2477.0869581533007
2.3000000000000016 2431.0074231393937
2.3200000000000016 2384.3446339844318
2.3400000000000016 2341.6619342993254
2.3600000000000017 2307.3333394497968
2.3800000000000017 2284.4707121812007
2.4000000000000017 2274.7351508910338
2.4200000000000017 2278.428970638129
2.4400000000000017 2294.532625715268
2.4600000000000017 2320.8692546833977
2.4800000000000018 2354.3740926976734
2.5000000000000018 2391.43736835331
2.520000000000002 2428.2834066246432
2.540000000000002 2461.3473217636824
2.560000000000002 2487.612561858961
2.580000000000002 2504.878239411648
2.600000000000002 2511.9335211259445
2.620000000000002 2508.6265293013153
2.640000000000002 2495.8261593597545
2.660000000000002 2475.285759553835
2.680000000000002 2449.4269250116026
2.700000000000002 2421.0684987546015
2.720000000000002 2393.130224401459
2.740000000000002 2368.3413831426983
2.760000000000002 2348.982850800866
2.780000000000002 2336.68626148567
2.800000000000002 2332.307146390269
2.820000000000002 2335.8807749020334
2.840000000000002 2346.6607961825225
2.860000000000002 2363.2327469000556
2.880000000000002 2383.687315279764
2.900000000000002 2405.8333849116448
2.920000000000002 2427.427801346564
2.940000000000002 2447.5035057839386
2.960000000000002 2466.0734152658474
2.980000000000002 2481.441065616341
3.000000000000002 2492.3173929831282
3.0200000000000022 2497.9215445980235
3.0400000000000023 2498.030514458557
3.0600000000000023 2492.9726553813866
3.0800000000000023 2483.5675118705644
3.1000000000000023 2471.020432569911
3.1200000000000023 2456.7842843661556
3.1400000000000023 2442.403742102701
3.1600000000000024 2429.3583427287376
3.1800000000000024 2418.919928116748
3.2000000000000024 2412.037876439956
3.2200000000000024 2409.262084671213
3.2400000000000024 2410.7094113240137
3.2600000000000025 2416.074639189784
3.2800000000000025 2424.682602214417
3.3000000000000025 2435.5742056557783
3.3200000000000025 2447.615951983032
3.3400000000000025 2459.6210011200706
3.3600000000000025 2470.4691265151578
3.3800000000000026 2479.2137582611635
3.4000000000000026 2485.166199333401
3.4200000000000026 2487.9498945197142
3.4400000000000026 2487.5209594438334
3.4600000000000026 2484.1547424416635
3.4800000000000026 2478.401551643803
3.5000000000000027 2471.0175693904507
3.5200000000000027 2462.7821641927867
3.5400000000000027 2452.630840955885
3.5600000000000027 2441.7168234478763
3.5800000000000027 2431.2045403469724
3.6000000000000028 2422.157979991825
3.6200000000000028 2415.4410714296864
3.640000000000003 2411.6419338049946
3.660000000000003 2411.0281797425946
3.680000000000003 2413.5364743735036
3.700000000000003 2418.7957330933655
3.720000000000003 2426.1799794493804
3.740000000000003 2434.883959316632
3.760000000000003 2444.0127907123356
3.780000000000003 2452.675921665481
3.800000000000003 2460.075729968268
3.820000000000003 2465.582196890381
3.840000000000003 2468.786887712605
3.860000000000003 2469.5319763763846
3.880000000000003 2467.9127589321133
3.900000000000003 2464.2547482212854
3.920000000000003 2459.0690630335066
3.940000000000003 2452.991715375411
3.960000000000003 2446.713704599422
3.980000000000003 2440.909364424894
4.000000000000003 2436.1701977585253
4.020000000000002 2432.9504810103344
4.040000000000002 2431.529406732646
4.060000000000001 2431.992685215289
4.080000000000001 2434.2342406686284
4.1000000000000005 2437.977028837381
4.12 2441.2360299181805
4.14 2443.1376262774024
4.159999999999999 2443.5967556414757
4.179999999999999 2442.676837715813
4.199999999999998 2440.5768609719753
4.219999999999998 2437.6034563722455
4.2399999999999975 2434.1331949618125
4.259999999999997 2430.5699788590127
4.279999999999997 2427.302336660019
4.299999999999996 2424.664986031177
4.319999999999996 2422.9082794044616
4.339999999999995 2422.178124095218
4.359999999999995 2422.5076818548246
4.379999999999995 2423.8209165871544
4.399999999999994 2425.94696303503
4.419999999999994 2428.6430818643817
4.439999999999993 2431.6235168594253
4.459999999999993 2434.5909007995842
4.479999999999992 2437.266953896744
4.499999999999992 2439.4194607870186
4.519999999999992 2440.8830205973363
4.539999999999991 2441.57186774952
4.559999999999991 2441.4839331568337
4.57999999999999 2440.6961802580918
4.59999999999999 2439.3522874754194
4.6199999999999894 2437.6441766352937
4.639999999999989 2435.7897281293976
4.659999999999989 2434.009103754428
4.679999999999988 2432.502160448409
4.699999999999988 2431.5758077769337
4.719999999999987 2431.538671384469
4.739999999999987 2432.3668876080137
4.7599999999999865 2433.9493028665656
4.779999999999986 2436.103412467743
4.799999999999986 2438.598286473729
4.819999999999985 2441.181424229923
4.839999999999985 2443.606246013113
4.859999999999984 2445.6573878816666
4.879999999999984 2447.1713518480988
4.8999999999999835 2448.0504079000643
4.919999999999983 2448.268895899435
4.939999999999983 2447.8714271725853
4.959999999999982 2446.9640459170237
4.979999999999982 2445.699395818133
4.999999999999981 2444.2578988054092
5.019999999999981 2442.827325825715
5.0399999999999805 2441.582720273872
5.05999999999998 2440.6689395858416
5.07999999999998 2440.1874708954874
5.099999999999979 2440.1885893592294
5.119999999999979 2440.669335928166
5.139999999999978 2441.5771759340364
5.159999999999978 2442.8186199967568
5.1799999999999775 2444.2715317952143
5.199999999999977 2445.7996973236577
5.219999999999977 2447.2678094459375
5.239999999999976 2448.5554900989937
5.259999999999976 2449.5688542537437
5.279999999999975 2450.382819180584
5.299999999999975 2452.736277268757
5.3199999999999745 2456.3322230937383
5.339999999999974 2460.7643650457926
5.359999999999974 2465.5618064330224
5.379999999999973 2470.241470046844
5.399999999999973 2474.359881865898
5.419999999999972 2477.557984134424
5.439999999999972 2479.594330476146
5.4599999999999715 2480.363739397865
5.479999999999971 2479.900398356097
5.499999999999971 2478.3659210219193
5.51999999999997 2476.0249014009046
5.53999999999997 2473.2110161458572
5.559999999999969 2470.2880760850726
5.579999999999969 2467.6103208550103
5.599999999999969 2465.4861413137814
5.619999999999968 2464.1487721934855
5.639999999999968 2463.7364422192545
5.659999999999967 2464.283718279949
5.679999999999967 2465.723796407885
5.699999999999966 2467.9012311908596
5.719999999999966 2470.593068255672
5.739999999999966 2473.53567053182
5.759999999999965 2476.454244009071
5.779999999999965 2479.0918663817883
5.799999999999964 2481.235070717747
5.819999999999964 2482.733585298236
5.839999999999963 2483.512346348148
5.859999999999963 2483.5752720344935
5.879999999999963 2480.899171028623
5.899999999999962 2475.237988217721
5.919999999999962 2467.3894046719174
5.939999999999961 2458.333641347679
5.959999999999961 2449.122327756272
5.9799999999999605 2440.7635220715633
5.99999999999996 2434.1175981592273
6.01999999999996 2429.8145202905594
6.039999999999959 2428.200606599664
6.059999999999959 2429.3186547061778
6.079999999999958 2432.92135484606
6.099999999999958 2438.514482676983
6.1199999999999575 2445.4235483642055
6.139999999999957 2452.875252026892
6.159999999999957 2460.084478214607
6.179999999999956 2466.337122808801
6.199999999999956 2471.06080810036
6.219999999999955 2473.8764185662667
6.239999999999955 2474.6264883352746
6.2599999999999545 2473.3787826179714
6.279999999999954 2470.4062928026583
6.299999999999954 2466.146816990258
6.319999999999953 2461.1477815987178
6.339999999999953 2456.0027510153527
6.359999999999952 2451.286708520923
6.379999999999952 2447.4968860308013
6.3999999999999515 2445.005103847605
6.419999999999951 2444.025908037669
6.439999999999951 2444.6029392026708
6.45999999999995 2446.8544100083373
6.47999999999995 2450.811753074655
6.499999999999949 2455.9954535675733
6.519999999999949 2461.825717134429
6.5399999999999485 2467.687459378035
6.559999999999948 2472.9962558722273
6.579999999999948 2477.25798282781
6.599999999999947 2480.1159816992727
6.619999999999947 2481.381304919085
6.639999999999946 2481.043689764898
6.659999999999946 2479.2628731462455
6.6799999999999455 2476.342493768838
6.699999999999945 2472.689733689138
6.719999999999945 2468.766214385114
6.739999999999944 2465.0357561824535
6.759999999999944 2461.9147986948724
6.779999999999943 2459.7307238017797
6.799999999999943 2458.6921832284916
6.8199999999999426 2458.8738516733983
6.839999999999942 2460.2165775873536
6.859999999999942 2462.541732358813
6.879999999999941 2465.577621466503
6.899999999999941 2468.99414771616
6.91999999999994 2472.441558546989
6.93999999999994 2475.5887904665387
6.95999999999994 2478.157395882307
6.979999999999939 2479.9476417167566
6.999999999999939 2480.8546094190115
7.019999999999938 2480.87312090561
7.039999999999938 2479.9672644436328
7.059999999999937 2477.1169579064026
7.079999999999937 2472.7721568755064
7.099999999999937 2467.511616817676
7.119999999999936 2461.9769316752645
7.139999999999936 2456.8013258346573
7.159999999999935 2452.5427498772397
7.179999999999935 2449.6287154224406
7.1999999999999345 2448.3182606069036
7.219999999999934 2448.684283890073
7.239999999999934 2450.6166081407355
7.259999999999933 2453.844742262125
7.279999999999933 2457.976266623553
7.299999999999932 2462.546005410079
7.319999999999932 2467.0700232711406
7.3399999999999315 2471.0983713794494
7.359999999999931 2474.2610178466034
7.379999999999931 2476.3024800856533
7.39999999999993 2477.1020144350496
7.41999999999993 2476.678496026733
7.439999999999929 2475.179707972842
7.459999999999929 2472.8588231113727
7.4799999999999285 2470.041002031309
7.499999999999928 2467.084369561475
7.519999999999928 2464.339886691088
7.539999999999927 2462.1144591746706
7.559999999999927 2460.6410126832848
7.579999999999926 2460.0582937113722
7.599999999999926 2460.4020060839225
7.6199999999999255 2461.6073826600277
7.639999999999925 2467.6897215114473
7.659999999999925 2478.9920807474587
7.679999999999924 2494.021681960656
7.699999999999924 2510.9751537522084
7.719999999999923 2527.949151958295
7.739999999999923 2543.1536318503413
7.7599999999999225 2555.100432735153
7.779999999999922 2562.746911193187
7.799999999999922 2565.581733992748
7.819999999999921 2563.6467812619853
7.839999999999921 2557.498040762845
7.85999999999992 2548.1129700872993
7.87999999999992 2536.758692246971
7.8999999999999195 2524.837488593306
7.919999999999919 2513.727522375549
7.939999999999919 2504.6360666409605
7.959999999999918 2498.4802335643835
7.979999999999918 2495.8060388408494
7.999999999999917 2496.7520978812404
8.019999999999918 2501.0591077573495
8.039999999999917 2508.121450517668
8.059999999999917 2517.0729477898117
8.079999999999917 2526.895639585829
8.099999999999916 2536.5384026863235
8.119999999999916 2545.032554929247
8.139999999999915 2551.591660840376
8.159999999999915 2555.6858595328044
8.179999999999914 2557.084040580484
8.199999999999914 2555.8610732409375
8.219999999999914 2551.0242737155104
8.239999999999913 2541.6816904667326
8.259999999999913 2529.1844573290014
8.279999999999912 2515.1427998453105
8.299999999999912 2501.2376557721973
8.319999999999911 2489.0322584153328
8.339999999999911 2479.8071306834454
8.35999999999991 2474.436543470946
8.37999999999991 2473.3177453304743
8.39999999999991 2476.3575225203335
8.41999999999991 2483.013492589552
8.439999999999909 2492.3823866157472
8.459999999999908 2503.321882364263
8.479999999999908 2514.590761332071
8.499999999999908 2524.9908227359997
8.519999999999907 2533.4947649992323
8.539999999999907 2539.3471509276606
8.559999999999906 2542.129227635524
8.579999999999906 2541.782866577995
8.599999999999905 2538.5937895558927
8.619999999999905 2533.138403944549
8.639999999999905 2526.2024626766542
8.659999999999904 2518.6821826732967
8.679999999999904 2511.4796255473466
8.699999999999903 2505.404219081112
8.719999999999903 2501.0906887195933
8.739999999999903 2498.9413185212175
8.759999999999902 2499.097230474872
8.779999999999902 2501.440149203303
8.799999999999901 2505.6002590527637
8.8199999999999 2510.8921242293
8.8399999999999 2516.716709076661
8.8599999999999 2522.4564018569304
8.8799999999999 2527.543478580493
8.899999999999899 2531.518556593201
8.919999999999899 2534.073564322024
8.939999999999898 2535.0755776582846
8.959999999999898 2534.570037551535
8.979999999999897 2532.7643106094733
8.999999999999897 2529.9942676262685
9.019999999999897 2526.6790270609376
9.039999999999896 2523.2689925512877
9.059999999999896 2520.194021770375
9.079999999999895 2517.8172322287105
9.099999999999895 2516.3994116070503
9.119999999999894 2516.0773692316607
9.139999999999894 2516.857687195688
9.159999999999894 2518.625537927727
9.179999999999893 2521.166477989599
9.199999999999893 2524.197645809102
9.219999999999892 2527.404235613163
9.239999999999892 2530.4766853867336
9.259999999999891 2533.144273425634
9.279999999999891 2535.2016628527863
9.29999999999989 2536.5261974376454
9.31999999999989 2537.0843567542015
9.33999999999989 2536.928181350677
9.35999999999989 2536.1824533133263
9.379999999999889 2535.0253165442273
9.399999999999888 2533.0858156139475
9.419999999999888 2530.524298354685
9.439999999999888 2527.7083248225317
9.459999999999887 2525.00880785992
9.479999999999887 2522.760450535204
9.499999999999886 2521.2277828145743
9.519999999999886 2520.580906516661
9.539999999999885 2520.8828860379367
9.559999999999885 2522.0895142174268
9.579999999999885 2524.0609998925074
9.599999999999884 2526.58327230999
9.619999999999884 2529.396268534887
9.639999999999883 2532.225355027226
9.659999999999883 2534.812332157766
9.679999999999882 2536.942588488006
9.699999999999882 2538.465635491399
9.719999999999882 2539.307235350901
9.739999999999881 2539.4722632899748
9.75999999999988 2539.0387134545626
9.77999999999988 2538.144032758297
9.79999999999988 2536.965958131697
9.81999999999988 2535.700504922258
9.839999999999879 2534.5393468335737
9.859999999999879 2533.6494272234427
9.879999999999878 2533.156750921527
9.899999999999878 2533.1358410963003
9.919999999999877 2533.605477388194
9.939999999999877 2534.5307650906684
9.959999999999877 2535.830821658326
9.979999999999876 2538.8709082178843
9.999999999999876 2544.956587578422
10.019999999999875 2553.277025933125
10.039999999999875 2562.825661212458
10.059999999999874 2572.5201232916197
10.079999999999874 2581.3277067074305
10.099999999999874 2588.3785002853756
10.119999999999873 2593.0535435920224
10.139999999999873 2595.038713675344
10.159999999999872 2594.341325404375
10.179999999999872 2591.2690617067046
10.199999999999871 2586.376648963943
10.219999999999871 2580.3882101583763
10.23999999999987 2574.10564262556
10.25999999999987 2568.3140277108187
10.27999999999987 2563.694864183225
10.29999999999987 2560.7564421998595
10.319999999999869 2559.787810509081
10.339999999999868 2560.8401615013645
10.359999999999868 2563.7360312181763
10.379999999999868 2568.103434333081
10.399999999999867 2573.429674220992
10.419999999999867 2579.1275603554764
10.439999999999866 2584.605742191644
10.459999999999866 2589.3350522937894
10.479999999999865 2592.903755298771
10.499999999999865 2595.056052958683
10.519999999999865 2595.710634789711
10.539999999999864 2594.9585762964934
10.559999999999864 2591.9153843679555
10.579999999999863 2580.2484101253626
10.599999999999863 2561.916783923697
10.619999999999862 2539.501636142794
10.639999999999862 2515.88379272625
10.659999999999862 2493.8939023596936
10.679999999999861 2475.988801981586
10.69999999999986 2463.9934835394774
10.71999999999986 2458.9345842218345
10.73999999999986 2460.9776492893934
10.75999999999986 2469.4672634170724
10.779999999999859 2483.058108724161
10.799999999999859 2499.9144058958104
10.819999999999858 2517.951030114879
10.839999999999858 2535.086138486688
10.859999999999857 2549.476141945549
10.879999999999857 2559.7087504573647
10.899999999999856 2564.934481389175
