# (1): time [s] (2): displacement/rotation [m/rad] (3): support force/ moment [N]/[N m]
0.05 0.0 0.0
0.1 1.1416317414991183e-07 4.056283317716282
0.15000000000000002 5.708576338427604e-07 20.282900455331873
0.2 1.673762708055828e-06 59.46975284330536
0.25 3.7616265103218182e-06 133.65275602149583
0.3 7.168120698123375e-06 254.68745612305747
0.35 1.218244370382727e-05 432.8492399831411
0.39999999999999997 1.9012991737543315e-05 675.5425449506392
0.44999999999999996 2.7757410527681618e-05 986.2367799846621
0.49999999999999994 3.836478127987958e-05 1363.1227710002283
0.5499999999999999 5.0587813263409783e-05 1797.414135933729
0.6 6.390654528445364e-05 2270.636354152296
0.65 7.767085069437033e-05 2759.6900514582426
0.7000000000000001 9.128788940989129e-05 3243.511278309678
0.7500000000000001 0.0001043542447839799 3707.766408932367
0.8000000000000002 0.00011668374868063473 4145.84078225039
0.8500000000000002 0.0001282701707881072 4557.513031699631
0.9000000000000002 0.00013923353541954342 4947.047690241445
0.9500000000000003 0.0001497590530801566 5321.025393778398
1.0000000000000002 0.00016003763874403827 5686.229461277192
1.0500000000000003 0.0001702168427654039 6047.902441789077
1.1000000000000003 0.00018037005880344102 6408.652054288276
1.1500000000000004 0.0001904880759360416 6768.151029408241
1.2000000000000004 0.00020049202394665245 7123.597062937899
1.2500000000000004 0.00021027693075490196 7471.260436414113
1.3000000000000005 0.00021973498210757313 7807.310447335903
1.3500000000000005 0.00022877071155752847 8128.355117862698
1.4000000000000006 0.00023731337025406608 8431.880700588765
1.4500000000000006 0.00024532540380704803 8716.552866407035
1.5000000000000007 0.00025280561319643654 8982.329013445118
1.5500000000000007 0.00025978651207468904 9230.364370497617
1.6000000000000008 0.00026632621666903227 9462.723840583772
1.6500000000000008 0.0002724959236583947 9681.937082704088
1.7000000000000008 0.00027836460872506923 9890.454842569658
1.7500000000000009 0.0002839829541902546 10090.07789223778
1.800000000000001 0.00028936864386081994 10281.434547549628
1.850000000000001 0.00029449501522406976 10463.577474075684
1.900000000000001 0.0002992846294476378 10633.755225509294
1.950000000000001 0.00030360865062421837 10787.390187874513
2.000000000000001 0.0003072921146751607 10918.26578670488
2.0500000000000007 0.0003101243556623487 11018.896939908425
2.1000000000000005 0.00031187319367061866 11081.034161399995
2.1500000000000004 0.0003123010928754271 11096.237666549994
2.2 0.0003111814247692493 11056.455213983423
2.25 0.00030831319779177677 10954.545457822755
2.3 0.00030353305734612387 10784.704315173887
2.3499999999999996 0.0002967239052324642 10542.771219566703
2.3999999999999995 0.00028782002313797287 10226.411161503042
2.4499999999999993 0.00027677691771074833 9834.043266568617
2.499999999999999 0.00026360060621982115 9365.88133179709
2.549999999999999 0.0002483968155208553 8825.681893252373
2.5999999999999988 0.0002313713215416308 8220.756288143306
2.6499999999999986 0.00021279375774143537 7560.684748545168
2.6999999999999984 0.0001929564627573749 6855.85423457576
2.7499999999999982 0.00017214679901975629 6116.474898859795
2.799999999999998 0.00015063959587709739 5352.311586408922
2.849999999999998 0.00012870672618564956 4573.024096362084
2.8999999999999977 0.00010663513333066824 3788.80769243201
2.9499999999999975 8.474351586096336e-05 3010.9859175785396
2.9999999999999973 6.339039039257779e-05 2252.29707361929
3.049999999999997 4.297058096030035e-05 1526.769485867329
3.099999999999997 2.3901425386556553e-05 849.231407474883
3.149999999999997 6.60283442194913e-06 234.6025092139204
3.1999999999999966 -8.523723991045063e-06 -302.8528217364815
3.2499999999999964 -2.1113051417558975e-05 -750.1588746881976
3.2999999999999963 -3.090714414451603e-05 -1098.148629145747
3.349999999999996 -3.7716526461733186e-05 -1340.0899040178904
3.399999999999996 -4.137973889290577e-05 -1470.2459511360646
3.4499999999999957 -4.174691216117528e-05 -1483.291828792175
3.4999999999999956 -3.8680632002425385e-05 -1374.3451290529997
3.5499999999999954 -3.2067393470254564e-05 -1139.372955811759
3.599999999999995 -2.1778688448958334e-05 -773.8093417168553
3.649999999999995 -7.743031928913476e-06 -275.1143832121675
3.699999999999995 9.930320539770528e-06 352.83000709277013
3.7499999999999947 3.092889460588068e-05 1098.921435562904
3.7999999999999945 5.480002445515724e-05 1947.0764251527278
3.8499999999999943 8.103402440943375e-05 2879.1855502175877
3.899999999999994 0.00010912354520665649 3877.222399322726
3.949999999999994 0.00013858412463710936 4923.9737511823105
3.999999999999994 0.00016894442722349475 6002.692784872289
4.049999999999994 0.00019972518760901512 7096.3509262836005
4.099999999999993 0.0002304238685308205 8187.092737084158
4.149999999999993 0.0002605133967016257 9256.19099986477
4.199999999999993 0.0002894544580740897 10284.483575962695
4.249999999999993 0.00031671570461934553 11253.091363938756
4.299999999999993 0.0003417955621431493 12144.193143843015
4.3499999999999925 0.0003642411676967316 12941.698434327322
4.399999999999992 0.00038366259956046405 13631.753092159224
4.449999999999992 0.00039974241283855677 14203.078117392597
4.499999999999992 0.0004122413646716757 14647.173073468754
4.549999999999992 0.00042101123646200037 14958.771668256353
4.599999999999992 0.0004259744407574649 15135.117174905234
4.6499999999999915 0.0004271128934469601 15175.567054534058
4.699999999999991 0.0004244691623271629 15081.63376547117
4.749999999999991 0.0004181546346607606 14857.27496130152
4.799999999999991 0.00040835904226741495 14509.231922833611
4.849999999999991 0.0003955169351514853 14052.944461955305
4.899999999999991 0.0003801900727588108 13508.372215263033
4.94999999999999 0.00036293417641781404 12895.260281564397
4.99999999999999 0.000344248974942644 12231.36431339191
5.04999999999999 0.0003245924312032783 11532.955995231012
5.09999999999999 0.00030442064544638017 10816.240831488205
5.14999999999999 0.0002842206237409277 10098.52242823376
5.1999999999999895 0.0002645183559972081 9398.489509868281
5.249999999999989 0.000245861295595464 8735.593410239484
5.299999999999989 0.00022878543989604145 8128.878424211289
5.349999999999989 0.00021378032021391412 7595.737881298341
5.399999999999989 0.00020126196579012387 7150.953540002769
5.449999999999989 0.0001915085092364785 6804.407612183077
5.4999999999999885 0.0001847092993684214 6562.827770287334
5.549999999999988 0.00018100725908075304 6431.292147069079
5.599999999999988 0.00018050981694968217 6413.617741703103
5.649999999999988 0.0001832792171496183 6512.016125549107
5.699999999999988 0.00018931264837260422 6726.387411216492
5.749999999999988 0.0001985197098392259 7053.519606955942
5.799999999999987 0.0002106361728102787 7484.024513509004
5.849999999999987 0.0002251581229041911 7999.997762722403
5.899999999999987 0.00024148450969750147 8580.083686939319
5.949999999999987 0.00025904245916830496 9203.927742275448
5.999999999999987 0.00027732133032618424 9853.38656029175
6.0499999999999865 0.0002958427338716756 10511.46269370071
6.099999999999986 0.0003141156699405407 11160.710634586654
6.149999999999986 0.00033161240969014895 11782.37987328147
6.199999999999986 0.00034777615217895466 12356.6869517016
6.249999999999986 0.0003620518036368606 12863.909068548119
6.299999999999986 0.00037397267949089647 13287.464652205916
6.349999999999985 0.0003831978090908326 13615.238819126453
6.399999999999985 0.00038944909367556404 13837.35056018619
6.449999999999985 0.0003924691230542014 13944.653943074738
6.499999999999985 0.00039201902499648087 13928.661699897697
6.549999999999985 0.0003879001325585681 13782.315079739483
6.5999999999999845 0.0003799864307964228 13501.136699073402
6.649999999999984 0.00036824004589134073 13083.780879311485
6.699999999999984 0.00035283526184554895 12536.440031413247
6.749999999999984 0.00033419368042899645 11874.093909041787
6.799999999999984 0.00031291168054013084 11117.932197880114
6.849999999999984 0.0002896596879618664 10291.775512055785
6.8999999999999835 0.0002651123596426505 9419.594801444237
6.949999999999983 0.00023992425867449662 8524.64706963089
6.999999999999983 0.0002147384703208495 7629.781506342671
7.049999999999983 0.0001902061320554868 6758.133400976459
7.099999999999983 0.00016699855418201686 5933.554795189416
7.149999999999983 0.00014580324216188924 5180.473153922687
7.199999999999982 0.00012730438551833255 4523.198124922961
7.249999999999982 0.00011215398619992479 3984.8957128745747
7.299999999999982 0.00010088368446592621 3584.455402330856
7.349999999999982 9.386837407718194e-05 3335.1973844949257
7.399999999999982 9.140712988519627e-05 3247.747961061167
7.4499999999999815 9.377751712400764e-05 3331.969184629219
7.499999999999981 0.00010123913098151696 3597.0846217115104
7.549999999999981 0.00011421263440452271 4058.040669043994
7.599999999999981 0.00013290505596017137 4722.193170833525
7.649999999999981 0.00015710229646077601 5581.9350596538725
7.699999999999981 0.00018625269024046107 6617.665336723156
7.7499999999999805 0.00021965367971970984 7804.421726677634
7.79999999999998 0.0002565911543734521 9116.831471345358
7.84999999999998 0.0002963800789426008 10530.554873497575
7.89999999999998 0.0003383335537472076 12021.185991958715
7.94999999999998 0.0003817143262233968 13562.529818591865
7.99999999999998 0.00042570797991589273 15125.649667764319
8.04999999999998 0.00046942887264207083 16679.078162735754
8.09999999999998 0.0005119497767098842 18189.870369669316
8.14999999999998 0.0005523406284354412 19624.98059030481
8.199999999999982 0.0005897058096530698 20952.586995479644
8.249999999999982 0.0006232146547368974 22143.175557172803
8.299999999999983 0.0006521239744471226 23170.34033373314
8.349999999999984 0.0006757937974998198 24011.342776919206
8.399999999999984 0.0006936986056473763 24647.51092077683
8.449999999999985 0.0007054642558854291 25065.55124891302
8.499999999999986 0.0007108680965961466 25257.55282113364
8.549999999999986 0.0007097914723516169 25219.29974175797
8.599999999999987 0.0007021989868264008 24949.5343589604
8.649999999999988 0.0006881425155827082 24450.09984133848
8.699999999999989 0.0006678736689594448 23729.936049121803
8.74999999999999 0.0006418771905311041 22806.26620064877
8.79999999999999 0.0006108234422351208 21702.90864158028
8.84999999999999 0.0005755036806699191 20447.97717449865
8.899999999999991 0.0005367833663080648 19072.222108364298
8.949999999999992 0.0004955795224200448 17608.225808039893
8.999999999999993 0.0004528524720600503 16090.109104637046
9.049999999999994 0.0004095993438307686 14553.300551599683
9.099999999999994 0.0003668412703129663 13034.081577535428
9.149999999999995 0.00032560236792572003 11568.83962854529
9.199999999999996 0.0002868830009807879 10193.118224679745
9.249999999999996 0.0002516314576895255 8940.610592154257
9.299999999999997 0.00022071755131150932 7842.22169695826
9.349999999999998 0.00019490925353915373 6925.238015555064
9.399999999999999 0.0001748532609471277 6212.637049638951
9.45 0.00016106017540906177 5722.560777807001
9.5 0.00015383857341118564 5465.973100306846
9.55 0.00015336327513137884 5449.085478727685
9.600000000000001 0.00015972334116258363 5675.062287221757
9.650000000000002 0.00017295540893219667 6145.205274681905
9.700000000000003 0.00019286911794178186 6852.750822980758
9.750000000000004 0.00021899775548287877 7781.116360833042
9.800000000000004 0.00025067739004783993 8906.712019451117
9.850000000000005 0.0002871368361920172 10202.137135904186
9.900000000000006 0.00032754010232706487 11637.68844765765
9.950000000000006 0.0003709878861379465 13181.413225600494
10.000000000000007 0.0004165113336570592 14798.887530355116
10.050000000000008 0.00046272870128772795 16441.017216263004
10.100000000000009 0.0005081253772837388 18053.987255801203
10.15000000000001 0.0005515041674273493 19595.26064901632
10.20000000000001 0.0005921443497340662 21039.229728775932
10.25000000000001 0.0006296648853776833 22372.355966166037
10.300000000000011 0.0006637900069523964 23584.841186459427
10.350000000000012 0.0006941857635214044 24664.819920567945
10.400000000000013 0.0007204222239800682 25597.01646877055
10.450000000000014 0.0007420257529882533 26364.60229469224
10.500000000000014 0.0007585576492656233 26951.99008921918
10.550000000000015 0.0007696951503838159 27347.71191741088
10.600000000000016 0.0007752432728335337 27544.839902901946
10.650000000000016 0.0007750884151087791 27539.337718767536
10.700000000000017 0.000769166814200581 27328.93982858137
10.750000000000018 0.0007574137798765898 26911.34775113658
10.800000000000018 0.0007398124773739797 26285.963337615787
10.85000000000002 0.0007164788533905993 25456.90624096074
10.90000000000002 0.0006876618020367283 24433.019812233837
10.95000000000002 0.0006536969318838336 23226.22841723746
11.000000000000021 0.0006149695962202324 21850.223880208865
11.050000000000022 0.0005719013717655477 20319.985064758646
11.100000000000023 0.0005249521320500113 18651.85154223132
11.150000000000023 0.00047462663379310965 16863.757609531327
11.200000000000024 0.0004214780230995895 14975.356866286143
11.250000000000025 0.0003661056520412197 13007.944636738961
11.300000000000026 0.0003091483102946827 10984.21748594546
11.350000000000026 0.0002512751763198871 8927.951709928544
11.400000000000027 0.00019317635682895122 6863.667197563531
11.450000000000028 0.0001355537686119754 4816.303456597203
11.500000000000028 7.911238206532516e-05 2810.908491165346
11.55000000000003 2.4551965459870503e-05 872.3454708892746
11.60000000000003 -2.7440500464980243e-05 -974.976782966149
11.65000000000003 -7.619786137696584e-05 -2707.353892798916
11.700000000000031 -0.0001210796744315542 -4302.0305555476825
11.750000000000032 -0.00016147921242468333 -5737.4494042719525
11.800000000000033 -0.0001968306159200118 -6993.505127351799
11.850000000000033 -0.00022661602894254507 -8051.79800379145
11.900000000000034 -0.00025037235113386873 -8895.873811182915
11.950000000000035 -0.00026769721679729703 -9511.43626462311
12.000000000000036 -0.000278283577920158 -9887.575771410065
12.050000000000036 -0.00028193546405656637 -10017.329388753089
12.100000000000037 -0.00027852236698587063 -9896.060084420067
12.150000000000038 -0.0002678626402982186 -9517.31385686897
12.200000000000038 -0.00024973581051147766 -8873.257156321313
12.250000000000039 -0.00022405837102701718 -7960.92294524098
12.30000000000004 -0.0001909571590629714 -6784.817823026724
12.35000000000004 -0.00015072446544794798 -5355.32705113287
12.400000000000041 -0.000103739232166286 -3685.9146564744256
12.450000000000042 -5.041320139780241e-05 -1791.2100757995177
12.500000000000043 8.82121384887738e-06 313.42280769299015
12.550000000000043 7.349462596929612e-05 2611.3063821227324
12.600000000000044 0.0001430781638727619 5083.649553090223
12.650000000000045 0.00021697028984147496 7709.079339090198
12.700000000000045 0.00029449743476473665 10463.663441748857
12.750000000000046 0.00037492495778889887 13321.29964849761
12.800000000000047 0.0004574722509517523 16254.252508930813
12.850000000000048 0.0005413270574822945 19233.662072241623
12.900000000000048 0.0006256566837947609 22229.94225582628
12.950000000000049 0.0007096160400308052 25213.066530377895
13.00000000000005 0.0007923537432060381 28152.78476819739
13.05000000000005 0.0008730178634816817 31018.827411534363
13.100000000000051 0.0009507625357491943 33781.140385996056
13.150000000000052 0.0010247559447813402 36410.16881756303
13.200000000000053 0.0010941894414643442 38877.180937567195
13.250000000000053 0.0011582872654996405 41154.61353588364
13.300000000000054 0.0012163161614810796 43216.4136256912
13.350000000000055 0.0012675941701040933 45038.35080019646
13.400000000000055 0.0013114981641740217 46598.284991349145
13.450000000000056 0.0013474703030129155 47876.39579863253
13.500000000000057 0.001375023965703326 48855.39330063201
13.550000000000058 0.0013937492229051086 49520.71247183688
13.600000000000058 0.001403384318285762 49863.05295902261
13.650000000000059 0.0014037684427276272 49876.7011216378
13.70000000000006 0.0013947954210374162 49557.884493924605
13.75000000000006 0.0013762193903861409 48897.86742799045
13.800000000000061 0.0013478784388332296 47890.89709935083
13.850000000000062 0.0013098543147745064 46539.87807558368
13.900000000000063 0.0012624564540867772 44855.80479157868
13.950000000000063 0.0012061315664905032 42854.5491009389
14.000000000000064 0.0011413843391566531 40554.0428294699
14.050000000000065 0.001068745303577315 37973.13606658891
14.100000000000065 0.000988780340071963 35131.93486590557
14.150000000000066 0.0009021171259454305 32052.740963504777
14.200000000000067 0.0008094662931673897 28760.80352248209
14.250000000000068 0.0007116271226855282 25284.52145516993
14.300000000000068 0.0006094786814146294 21655.128515255874
14.350000000000069 0.0005039627144695654 17906.085448969545
14.40000000000007 0.00039606505823178904 14072.419590631842
14.45000000000007 0.00028680027649761146 10190.178976156096
14.500000000000071 0.00017720081776549242 6296.047095221775
14.550000000000072 6.830955753705893e-05 2427.077914935205
14.600000000000072 -3.882643019248313e-05 -1379.5254227027528
14.650000000000073 -0.00014316295816288192 -5086.662343046464
14.700000000000074 -0.0002436676316820767 -8657.651268188802
14.750000000000075 -0.0003393303288254405 -12056.6019844752
14.800000000000075 -0.00042917436577894256 -15248.812353575708
14.850000000000076 -0.0005122677043325356 -18201.16652117881
14.900000000000077 -0.0005877336151126766 -20882.513787783235
14.950000000000077 -0.0006547601852671889 -23264.006422216073
15.000000000000078 -0.000712608591873492 -25319.39362059135
15.050000000000079 -0.000760620391265359 -27025.28050028723
15.10000000000008 -0.0007982238772297683 -28361.35401034152
15.15000000000008 -0.000824939800533826 -29310.586149536735
15.200000000000081 -0.0008403867458622176 -29859.425012084066
15.250000000000082 -0.0008443539166556346 -30000.38087484536
15.300000000000082 -0.0008367559441651281 -29730.42053701139
15.350000000000083 -0.0008174427135280767 -29044.21033107048
15.400000000000084 -0.0007863220306539048 -27938.47454789508
15.450000000000085 -0.0007434846780010074 -26416.438740508493
15.500000000000085 -0.0006892249144857728 -24488.55809765719
15.550000000000086 -0.0006239987095771967 -22171.03347714185
15.600000000000087 -0.0005483692634074408 -19483.875703973546
15.650000000000087 -0.0004629709869373268 -16449.62576491197
15.700000000000088 -0.00036849987021757557 -13093.012587240868
15.750000000000089 -0.0002657215241075248 -9441.238765664877
15.80000000000009 -0.00015548352635491567 -5524.419225633728
15.85000000000009 -3.872195292911478e-05 -1375.8132853726784
15.900000000000091 8.354231016176729e-05 2968.3063873791025
15.950000000000092 0.00021021545118407727 7469.076031860075
16.000000000000092 0.00034014669418040445 12085.607915636097
16.050000000000093 0.00047214463253340475 16775.570675528674
16.100000000000094 0.0006049915601049574 21495.698511241695
16.150000000000095 0.0007374550435259755 26202.202355482244
16.200000000000095 0.0008682974298828705 30851.107687535605
16.250000000000096 0.000996284504789145 35398.56215953468
16.300000000000097 0.001120195095750852 39801.176809564764
16.350000000000097 0.0012388321931660522 44016.421197178264
16.400000000000098 0.0013510351130168853 48003.055550847756
16.4500000000001 0.0014556918088750302 51721.56822060982
16.5000000000001 0.001551750636320401 55134.593674635755
16.5500000000001 0.0016382311917049269 58207.29760675012
16.6000000000001 0.0017142340963188438 60907.72457349324
16.6500000000001 0.001778949807759421 63207.11106712602
16.700000000000102 0.0018316665897293947 65080.16868715765
16.750000000000103 0.001871777732713685 66505.34069514736
16.800000000000104 0.0018987880544057978 67465.03297859771
16.850000000000104 0.0019123196352918625 67945.81783955819
16.900000000000105 0.001912187871741938 67941.13620475413
